ts_seq_num,ppg_hr,internal_index,main_index
1,76.00,1,1
2,80.50,2,1
3,80.00,3,2
4,85.00,4,2
5,78.40,5,3
6,74.17,6,3
7,71.14,7,4
8,68.88,8,4
9,66.78,9,5
10,65.00,10,5
11,64.09,11,6
12,63.33,12,6
13,62.69,13,7
14,62.21,14,7
15,61.33,15,8
16,60.62,16,8
17,60.00,17,9
18,59.33,18,9
19,58.74,19,10
20,58.20,20,10
21,57.71,21,11
22,57.27,22,11
23,56.83,23,12
24,56.38,24,12
25,56.00,25,13
26,55.62,26,13
27,55.26,27,14
28,54.93,28,14
29,54.66,29,15
30,54.40,30,15
31,54.13,31,16
32,53.88,32,16
33,53.64,33,17
34,53.41,34,17
35,53.17,35,18
36,52.94,36,18
37,52.73,37,19
38,52.53,38,19
39,52.33,39,20
40,52.15,40,20
41,51.98,41,21
42,51.79,42,21
43,51.60,43,22
44,51.43,44,22
45,51.27,45,23
46,51.11,46,23
47,50.98,47,24
48,51.79,48,24
49,52.55,49,25
50,53.22,50,25
51,53.92,51,26
52,54.56,52,26
53,55.13,53,27
54,55.69,54,27
55,56.25,55,28
56,56.80,56,28
57,57.39,57,29
58,57.95,58,29
59,58.51,59,30
60,59.05,60,30
61,59.33,61,31
62,59.43,62,31
63,59.62,63,32
64,59.45,64,32
65,60.10,65,33
66,60.72,66,33
67,61.33,67,34
68,61.95,68,34
69,62.67,69,35
70,63.43,70,35
71,64.08,71,36
72,64.73,72,36
73,65.40,73,37
74,66.12,74,37
75,66.95,75,38
76,67.78,76,38
77,68.58,77,39
78,69.38,78,39
79,70.18,79,40
80,70.28,80,40
81,70.25,81,41
82,70.37,82,41
83,70.38,83,42
84,70.42,84,42
85,70.45,85,43
86,70.52,86,43
87,70.58,87,44
88,70.67,88,44
89,70.73,89,45
90,70.77,90,45
91,70.80,91,46
92,70.83,92,46
93,70.87,93,47
94,70.90,94,47
95,70.97,95,48
96,71.05,96,48
97,71.23,97,49
98,71.38,98,49
99,71.52,99,50
100,71.62,100,50
101,71.70,101,51
102,71.78,102,51
103,71.83,103,52
104,71.90,104,52
105,71.95,105,53
106,72.73,106,53
107,73.50,107,54
108,73.53,108,54
109,73.58,109,55
110,73.65,110,55
111,73.67,111,56
112,73.65,112,56
113,73.70,113,57
114,73.77,114,57
115,73.78,115,58
116,73.80,116,58
117,73.80,117,59
118,73.80,118,59
119,73.77,119,60
120,73.70,120,60
121,73.05,121,61
122,72.38,122,61
123,71.70,123,62
124,70.98,124,62
125,70.22,125,63
126,69.55,126,63
127,69.08,127,64
128,68.65,128,64
129,68.20,129,65
130,67.68,130,65
131,67.17,131,66
132,66.73,132,66
133,66.28,133,67
134,65.75,134,67
135,65.25,135,68
136,64.73,136,68
137,64.25,137,69
138,63.88,138,69
139,63.53,139,70
140,63.88,140,70
141,64.37,141,71
142,64.70,142,71
143,65.13,143,72
144,65.57,144,72
145,65.97,145,73
146,66.32,146,73
147,66.67,147,74
148,67.00,148,74
149,67.35,149,75
150,67.68,150,75
151,68.05,151,76
152,68.40,152,76
153,68.80,153,77
154,69.15,154,77
155,69.47,155,78
156,69.77,156,78
157,69.97,157,79
158,70.22,158,79
159,70.50,159,80
160,70.85,160,80
161,71.23,161,81
162,71.62,162,81
163,72.00,163,82
164,72.38,164,82
165,72.72,165,83
166,72.45,166,83
167,72.17,167,84
168,71.87,168,84
169,71.58,169,85
170,71.48,170,85
171,71.42,171,86
172,71.37,172,86
173,71.23,173,87
174,71.07,174,87
175,70.82,175,88
176,70.55,176,88
177,70.22,177,89
178,69.87,178,89
179,69.60,179,90
180,69.30,180,90
181,69.53,181,91
182,69.83,182,91
183,70.15,183,92
184,70.38,184,92
185,70.88,185,93
186,71.32,186,93
187,71.50,187,94
188,71.65,188,94
189,71.77,189,95
190,71.92,190,95
191,72.03,191,96
192,72.08,192,96
193,72.13,193,97
194,72.17,194,97
195,72.18,195,98
196,72.22,196,98
197,72.23,197,99
198,72.10,198,99
199,71.95,199,100
200,71.93,200,100
201,71.95,201,101
202,72.00,202,101
203,72.08,203,102
204,72.17,204,102
205,72.23,205,103
206,72.48,206,103
207,72.77,207,104
208,73.08,208,104
209,73.38,209,105
210,73.73,210,105
211,74.07,211,106
212,74.58,212,106
213,75.07,213,107
214,75.57,214,107
215,76.08,215,108
216,76.57,216,108
217,77.02,217,109
218,77.47,218,109
219,77.80,219,110
220,78.08,220,110
221,77.70,221,111
222,77.35,222,111
223,77.07,223,112
224,76.75,224,112
225,76.50,225,113
226,76.13,226,113
227,75.82,227,114
228,75.58,228,114
229,75.32,229,115
230,74.95,230,115
231,74.53,231,116
232,74.17,232,116
233,73.85,233,117
234,73.50,234,117
235,73.25,235,118
236,73.10,236,118
237,72.92,237,119
238,72.73,238,119
239,72.45,239,120
240,72.20,240,120
241,71.93,241,121
242,71.62,242,121
243,71.30,243,122
244,71.05,244,122
245,70.57,245,123
246,70.05,246,123
247,69.58,247,124
248,69.10,248,124
249,68.60,249,125
250,68.10,250,125
251,67.65,251,126
252,67.18,252,126
253,66.72,253,127
254,66.28,254,127
255,65.83,255,128
256,65.37,256,128
257,64.90,257,129
258,64.50,258,129
259,64.10,259,130
260,63.57,260,130
261,63.00,261,131
262,62.40,262,131
263,61.78,263,132
264,61.15,264,132
265,60.57,265,133
266,59.83,266,133
267,59.07,267,134
268,58.27,268,134
269,57.47,269,135
270,56.68,270,135
271,55.88,271,136
272,54.93,272,136
273,53.97,273,137
274,53.03,274,137
275,52.10,275,138
276,51.20,276,138
277,50.33,277,139
278,49.45,278,139
279,48.67,279,140
280,47.88,280,140
281,47.77,281,141
282,47.63,282,141
283,47.47,283,142
284,47.32,284,142
285,47.18,285,143
286,47.03,286,143
287,46.87,287,144
288,46.62,288,144
289,46.38,289,145
290,46.10,290,145
291,45.85,291,146
292,45.60,292,146
293,45.33,293,147
294,45.12,294,147
295,44.92,295,148
296,44.62,296,148
297,44.38,297,149
298,44.17,298,149
299,44.00,299,150
300,43.87,300,150
301,43.77,301,151
302,43.70,302,151
303,43.68,303,152
304,43.72,304,152
305,43.75,305,153
306,43.80,306,153
307,43.85,307,154
308,43.90,308,154
309,44.00,309,155
310,44.15,310,155
311,44.32,311,156
312,44.47,312,156
313,44.63,313,157
314,44.80,314,157
315,45.12,315,158
316,45.43,316,158
317,45.75,317,159
318,46.08,318,159
319,46.45,319,160
320,46.77,320,160
321,47.07,321,161
322,47.40,322,161
323,47.75,323,162
324,48.10,324,162
325,48.43,325,163
326,48.77,326,163
327,49.08,327,164
328,49.38,328,164
329,49.67,329,165
330,49.95,330,165
331,50.25,331,166
332,50.53,332,166
333,50.80,333,167
334,51.07,334,167
335,51.35,335,168
336,51.63,336,168
337,51.92,337,169
338,52.20,338,169
339,52.48,339,170
340,52.77,340,170
341,53.03,341,171
342,53.28,342,171
343,53.55,343,172
344,53.77,344,172
345,53.93,345,173
346,54.07,346,173
347,54.18,347,174
348,54.25,348,174
349,54.28,349,175
350,54.30,350,175
351,54.30,351,176
352,54.30,352,176
353,54.32,353,177
354,54.32,354,177
355,54.30,355,178
356,54.30,356,178
357,54.33,357,179
358,54.40,358,179
359,54.52,359,180
360,54.67,360,180
361,54.83,361,181
362,55.00,362,181
363,55.17,363,182
364,55.30,364,182
365,55.43,365,183
366,55.57,366,183
367,55.72,367,184
368,55.78,368,184
369,55.77,369,185
370,55.67,370,185
371,55.53,371,186
372,55.40,372,186
373,55.25,373,187
374,55.10,374,187
375,54.80,375,188
376,54.50,376,188
377,54.23,377,189
378,53.93,378,189
379,53.62,379,190
380,53.35,380,190
381,53.10,381,191
382,52.82,382,191
383,52.52,383,192
384,52.25,384,192
385,51.98,385,193
386,51.70,386,193
387,51.45,387,194
388,51.22,388,194
389,51.00,389,195
390,50.75,390,195
391,50.52,391,196
392,50.28,392,196
393,50.07,393,197
394,49.83,394,197
395,49.60,395,198
396,49.37,396,198
397,49.13,397,199
398,48.88,398,199
399,48.63,399,200
400,48.42,400,200
401,48.18,401,201
402,47.97,402,201
403,47.73,403,202
404,47.53,404,202
405,47.38,405,203
406,47.27,406,203
407,47.17,407,204
408,47.13,408,204
409,47.15,409,205
410,47.18,410,205
411,47.22,411,206
412,47.25,412,206
413,47.30,413,207
414,47.35,414,207
415,47.38,415,208
416,47.42,416,208
417,47.40,417,209
418,47.33,418,209
419,47.20,419,210
420,47.03,420,210
421,46.85,421,211
422,46.67,422,211
423,46.45,423,212
424,46.27,424,212
425,46.08,425,213
426,45.90,426,213
427,45.70,427,214
428,45.60,428,214
429,45.55,429,215
430,45.53,430,215
431,45.53,431,216
432,45.57,432,216
433,45.60,433,217
434,45.63,434,217
435,45.67,435,218
436,45.72,436,218
437,45.75,437,219
438,45.82,438,219
439,45.85,439,220
440,45.90,440,220
441,45.95,441,221
442,45.98,442,221
443,46.02,443,222
444,46.03,444,222
445,46.03,445,223
446,46.05,446,223
447,46.05,447,224
448,46.05,448,224
449,46.03,449,225
450,46.03,450,225
451,46.02,451,226
452,46.00,452,226
453,45.98,453,227
454,45.98,454,227
455,45.97,455,228
456,45.93,456,228
457,45.90,457,229
458,45.88,458,229
459,45.87,459,230
460,45.83,460,230
461,45.82,461,231
462,45.80,462,231
463,45.78,463,232
464,45.78,464,232
465,45.77,465,233
466,45.75,466,233
467,45.72,467,234
468,45.67,468,234
469,45.62,469,235
470,45.57,470,235
471,45.53,471,236
472,45.50,472,236
473,45.45,473,237
474,45.43,474,237
475,45.45,475,238
476,45.47,476,238
477,45.50,477,239
478,45.55,478,239
479,45.60,479,240
480,45.65,480,240
481,45.70,481,241
482,45.75,482,241
483,45.82,483,242
484,45.87,484,242
485,45.93,485,243
486,46.00,486,243
487,46.07,487,244
488,46.13,488,244
489,46.22,489,245
490,46.32,490,245
491,46.42,491,246
492,46.53,492,246
493,46.63,493,247
494,46.75,494,247
495,46.87,495,248
496,46.95,496,248
497,47.03,497,249
498,47.12,498,249
499,47.18,499,250
500,47.22,500,250
501,47.23,501,251
502,47.27,502,251
503,47.28,503,252
504,47.30,504,252
505,47.35,505,253
506,47.40,506,253
507,47.45,507,254
508,47.50,508,254
509,47.57,509,255
510,47.63,510,255
511,47.68,511,256
512,47.73,512,256
513,47.78,513,257
514,47.82,514,257
515,47.83,515,258
516,47.87,516,258
517,47.90,517,259
518,47.93,518,259
519,47.97,519,260
520,48.00,520,260
521,48.03,521,261
522,48.07,522,261
523,48.10,523,262
524,48.13,524,262
525,48.18,525,263
526,48.23,526,263
527,48.28,527,264
528,48.33,528,264
529,48.38,529,265
530,48.42,530,265
531,48.43,531,266
532,48.45,532,266
533,48.47,533,267
534,48.47,534,267
535,48.45,535,268
536,48.43,536,268
537,48.40,537,269
538,48.37,538,269
539,48.33,539,270
540,48.30,540,270
541,48.27,541,271
542,48.25,542,271
543,48.22,543,272
544,48.20,544,272
545,48.17,545,273
546,48.13,546,273
547,48.12,547,274
548,48.10,548,274
549,48.08,549,275
550,48.05,550,275
551,48.03,551,276
552,47.98,552,276
553,47.93,553,277
554,47.85,554,277
555,47.77,555,278
556,47.72,556,278
557,47.67,557,279
558,47.62,558,279
559,47.75,559,280
560,47.87,560,280
561,47.98,561,281
562,48.10,562,281
563,48.23,563,282
564,48.35,564,282
565,48.45,565,283
566,48.53,566,283
567,48.60,567,284
568,48.67,568,284
569,48.75,569,285
570,48.83,570,285
571,48.92,571,286
572,48.98,572,286
573,49.05,573,287
574,49.13,574,287
575,49.22,575,288
576,49.28,576,288
577,49.33,577,289
578,49.37,578,289
579,49.43,579,290
580,49.50,580,290
581,49.57,581,291
582,49.63,582,291
583,49.68,583,292
584,49.75,584,292
585,49.80,585,293
586,49.85,586,293
587,49.88,587,294
588,49.92,588,294
589,49.93,589,295
590,50.17,590,295
591,50.32,591,296
592,50.48,592,296
593,50.67,593,297
594,50.83,594,297
595,50.98,595,298
596,51.13,596,298
597,51.27,597,299
598,51.38,598,299
599,51.48,599,300
600,51.55,600,300
601,51.58,601,301
602,51.58,602,301
603,51.57,603,302
604,51.55,604,302
605,51.55,605,303
606,51.55,606,303
607,51.55,607,304
608,51.55,608,304
609,51.53,609,305
610,51.52,610,305
611,51.48,611,306
612,51.47,612,306
613,51.47,613,307
614,51.48,614,307
615,51.50,615,308
616,51.50,616,308
617,51.50,617,309
618,51.48,618,309
619,51.32,619,310
620,51.18,620,310
621,51.10,621,311
622,51.00,622,311
623,50.90,623,312
624,50.82,624,312
625,50.73,625,313
626,50.67,626,313
627,50.62,627,314
628,50.57,628,314
629,50.48,629,315
630,50.50,630,315
631,50.50,631,316
632,50.48,632,316
633,50.43,633,317
634,50.38,634,317
635,50.33,635,318
636,51.08,636,318
637,51.83,637,319
638,51.83,638,319
639,51.80,639,320
640,51.77,640,320
641,51.73,641,321
642,51.70,642,321
643,51.68,643,322
644,51.65,644,322
645,51.62,645,323
646,51.58,646,323
647,51.57,647,324
648,51.55,648,324
649,51.55,649,325
650,51.37,650,325
651,51.27,651,326
652,51.18,652,326
653,51.10,653,327
654,51.03,654,327
655,51.00,655,328
656,50.95,656,328
657,50.93,657,329
658,50.95,658,329
659,50.98,659,330
660,51.03,660,330
661,51.12,661,331
662,51.20,662,331
663,51.30,663,332
664,51.40,664,332
665,51.48,665,333
666,51.57,666,333
667,51.62,667,334
668,51.67,668,334
669,51.70,669,335
670,51.73,670,335
671,51.77,671,336
672,51.78,672,336
673,51.78,673,337
674,51.78,674,337
675,51.78,675,338
676,51.78,676,338
677,51.78,677,339
678,51.80,678,339
679,51.80,679,340
680,51.80,680,340
681,51.77,681,341
682,51.75,682,341
683,51.73,683,342
684,51.70,684,342
685,51.67,685,343
686,51.63,686,343
687,51.62,687,344
688,51.62,688,344
689,51.62,689,345
690,51.53,690,345
691,51.48,691,346
692,51.47,692,346
693,51.48,693,347
694,51.50,694,347
695,51.53,695,348
696,50.78,696,348
697,50.15,697,349
698,50.27,698,349
699,50.42,699,350
700,50.57,700,350
701,50.70,701,351
702,50.92,702,351
703,51.13,703,352
704,51.35,704,352
705,51.53,705,353
706,51.70,706,353
707,51.92,707,354
708,52.08,708,354
709,52.18,709,355
710,52.23,710,355
711,52.23,711,356
712,52.18,712,356
713,52.10,713,357
714,52.02,714,357
715,51.92,715,358
716,51.83,716,358
717,51.75,717,359
718,51.67,718,359
719,51.58,719,360
720,51.52,720,360
721,51.45,721,361
722,51.40,722,361
723,51.35,723,362
724,51.30,724,362
725,51.27,725,363
726,51.23,726,363
727,51.22,727,364
728,51.20,728,364
729,51.18,729,365
730,51.17,730,365
731,51.15,731,366
732,51.13,732,366
733,51.13,733,367
734,51.12,734,367
735,51.08,735,368
736,51.05,736,368
737,51.02,737,369
738,50.97,738,369
739,50.93,739,370
740,50.90,740,370
741,50.87,741,371
742,50.83,742,371
743,50.80,743,372
744,50.78,744,372
745,50.77,745,373
746,50.75,746,373
747,50.70,747,374
748,50.63,748,374
749,50.58,749,375
750,50.52,750,375
751,50.45,751,376
752,50.40,752,376
753,50.37,753,377
754,50.33,754,377
755,50.30,755,378
756,50.28,756,378
757,50.17,757,379
758,50.07,758,379
759,49.93,759,380
760,49.82,760,380
761,49.70,761,381
762,49.52,762,381
763,49.35,763,382
764,49.18,764,382
765,49.07,765,383
766,48.98,766,383
767,48.87,767,384
768,48.83,768,384
769,48.85,769,385
770,48.90,770,385
771,49.02,771,386
772,49.13,772,386
773,49.25,773,387
774,49.37,774,387
775,49.45,775,388
776,49.58,776,388
777,49.73,777,389
778,49.88,778,389
779,49.92,779,390
780,49.98,780,390
781,50.08,781,391
782,50.22,782,391
783,50.38,783,392
784,50.55,784,392
785,50.72,785,393
786,50.87,786,393
787,51.03,787,394
788,51.20,788,394
789,51.37,789,395
790,51.55,790,395
791,51.72,791,396
792,51.88,792,396
793,52.05,793,397
794,52.23,794,397
795,52.40,795,398
796,52.57,796,398
797,52.70,797,399
798,52.82,798,399
799,52.93,799,400
800,53.03,800,400
801,53.10,801,401
802,53.13,802,401
803,53.17,803,402
804,53.20,804,402
805,53.22,805,403
806,53.22,806,403
807,53.23,807,404
808,53.25,808,404
809,53.27,809,405
810,53.27,810,405
811,53.27,811,406
812,53.25,812,406
813,53.22,813,407
814,53.18,814,407
815,53.15,815,408
816,53.10,816,408
817,53.20,817,409
818,53.32,818,409
819,53.45,819,410
820,53.57,820,410
821,54.00,821,411
822,54.33,822,411
823,54.63,823,412
824,54.92,824,412
825,55.23,825,413
826,55.82,826,413
827,56.40,827,414
828,56.97,828,414
829,57.53,829,415
830,58.10,830,415
831,58.65,831,416
832,59.22,832,416
833,59.78,833,417
834,60.33,834,417
835,60.90,835,418
836,61.37,836,418
837,61.75,837,419
838,62.03,838,419
839,62.48,839,420
840,62.90,840,420
841,63.28,841,421
842,63.63,842,421
843,63.95,843,422
844,64.27,844,422
845,64.58,845,423
846,64.88,846,423
847,65.13,847,424
848,65.37,848,424
849,65.60,849,425
850,65.80,850,425
851,66.02,851,426
852,66.23,852,426
853,66.50,853,427
854,66.67,854,427
855,66.85,855,428
856,67.02,856,428
857,67.18,857,429
858,67.40,858,429
859,67.62,859,430
860,67.83,860,430
861,68.23,861,431
862,68.65,862,431
863,69.13,863,432
864,69.58,864,432
865,70.07,865,433
866,70.55,866,433
867,71.02,867,434
868,71.47,868,434
869,71.90,869,435
870,72.35,870,435
871,72.83,871,436
872,73.28,872,436
873,73.78,873,437
874,74.27,874,437
875,74.75,875,438
876,75.12,876,438
877,75.72,877,439
878,76.38,878,439
879,77.03,879,440
880,77.70,880,440
881,78.08,881,441
882,78.57,882,441
883,79.07,883,442
884,79.58,884,442
885,80.05,885,443
886,80.23,886,443
887,80.38,887,444
888,80.50,888,444
889,80.60,889,445
890,80.67,890,445
891,80.70,891,446
892,80.70,892,446
893,80.72,893,447
894,80.73,894,447
895,80.75,895,448
896,80.80,896,448
897,80.93,897,449
898,81.18,898,449
899,81.38,899,450
900,81.62,900,450
901,81.97,901,451
902,82.28,902,451
903,82.60,903,452
904,82.92,904,452
905,83.23,905,453
906,83.58,906,453
907,83.97,907,454
908,84.40,908,454
909,84.87,909,455
910,85.37,910,455
911,85.87,911,456
912,86.38,912,456
913,86.87,913,457
914,87.45,914,457
915,88.05,915,458
916,88.65,916,458
917,89.28,917,459
918,89.88,918,459
919,90.48,919,460
920,91.10,920,460
921,91.57,921,461
922,92.07,922,461
923,92.50,923,462
924,92.98,924,462
925,93.43,925,463
926,93.92,926,463
927,94.42,927,464
928,94.93,928,464
929,95.47,929,465
930,96.00,930,465
931,96.50,931,466
932,97.03,932,466
933,97.52,933,467
934,98.02,934,467
935,98.52,935,468
936,99.13,936,468
937,99.37,937,469
938,99.52,938,469
939,99.67,939,470
940,99.78,940,470
941,99.87,941,471
942,99.92,942,471
943,99.93,943,472
944,99.93,944,472
945,99.93,945,473
946,99.92,946,473
947,99.92,947,474
948,99.95,948,474
949,100.00,949,475
950,100.08,950,475
951,100.25,951,476
952,100.43,952,476
953,100.62,953,477
954,100.80,954,477
955,101.07,955,478
956,101.03,956,478
957,100.97,957,479
958,100.80,958,479
959,100.62,959,480
960,100.43,960,480
961,100.15,961,481
962,99.88,962,481
963,99.60,963,482
964,99.27,964,482
965,98.92,965,483
966,98.57,966,483
967,98.20,967,484
968,97.82,968,484
969,97.42,969,485
970,96.97,970,485
971,96.58,971,486
972,96.13,972,486
973,95.68,973,487
974,95.23,974,487
975,94.77,975,488
976,94.30,976,488
977,93.82,977,489
978,93.38,978,489
979,93.00,979,490
980,92.62,980,490
981,92.23,981,491
982,91.83,982,491
983,91.45,983,492
984,91.17,984,492
985,90.93,985,493
986,90.72,986,493
987,90.50,987,494
988,90.27,988,494
989,90.03,989,495
990,89.80,990,495
991,89.57,991,496
992,89.33,992,496
993,89.03,993,497
994,88.72,994,497
995,88.38,995,498
996,88.00,996,498
997,87.63,997,499
998,87.27,998,499
999,86.90,999,500
1000,86.60,1000,500
1001,86.30,1001,501
1002,85.97,1002,501
1003,85.73,1003,502
1004,85.53,1004,502
1005,85.37,1005,503
1006,85.22,1006,503
1007,85.07,1007,504
1008,84.92,1008,504
1009,84.87,1009,505
1010,84.82,1010,505
1011,84.72,1011,506
1012,84.65,1012,506
1013,84.62,1013,507
1014,84.60,1014,507
1015,84.55,1015,508
1016,84.83,1016,508
1017,85.13,1017,509
1018,85.48,1018,509
1019,85.85,1019,510
1020,86.15,1020,510
1021,86.42,1021,511
1022,86.60,1022,511
1023,86.80,1023,512
1024,87.05,1024,512
1025,87.27,1025,513
1026,87.48,1026,513
1027,87.70,1027,514
1028,87.88,1028,514
1029,88.05,1029,515
1030,88.22,1030,515
1031,88.37,1031,516
1032,88.58,1032,516
1033,88.80,1033,517
1034,89.02,1034,517
1035,89.25,1035,518
1036,89.50,1036,518
1037,89.52,1037,519
1038,89.50,1038,519
1039,89.42,1039,520
1040,89.33,1040,520
1041,89.25,1041,521
1042,89.15,1042,521
1043,89.02,1043,522
1044,88.77,1044,522
1045,88.52,1045,523
1046,88.23,1046,523
1047,88.02,1047,524
1048,87.83,1048,524
1049,87.68,1049,525
1050,87.57,1050,525
1051,87.43,1051,526
1052,87.33,1052,526
1053,87.28,1053,527
1054,87.27,1054,527
1055,87.23,1055,528
1056,87.22,1056,528
1057,87.18,1057,529
1058,87.17,1058,529
1059,87.17,1059,530
1060,87.12,1060,530
1061,87.12,1061,531
1062,87.20,1062,531
1063,87.18,1063,532
1064,87.12,1064,532
1065,87.07,1065,533
1066,87.02,1066,533
1067,86.98,1067,534
1068,86.93,1068,534
1069,86.80,1069,535
1070,86.67,1070,535
1071,86.60,1071,536
1072,86.52,1072,536
1073,86.37,1073,537
1074,86.22,1074,537
1075,86.03,1075,538
1076,85.83,1076,538
1077,85.67,1077,539
1078,85.52,1078,539
1079,85.37,1079,540
1080,85.30,1080,540
1081,85.20,1081,541
1082,85.20,1082,541
1083,85.20,1083,542
1084,85.20,1084,542
1085,85.20,1085,543
1086,85.13,1086,543
1087,85.12,1087,544
1088,85.12,1088,544
1089,85.13,1089,545
1090,85.18,1090,545
1091,85.15,1091,546
1092,85.03,1092,546
1093,84.90,1093,547
1094,84.75,1094,547
1095,84.62,1095,548
1096,84.47,1096,548
1097,84.62,1097,549
1098,84.70,1098,549
1099,84.82,1099,550
1100,84.95,1100,550
1101,85.12,1101,551
1102,85.28,1102,551
1103,85.48,1103,552
1104,85.67,1104,552
1105,85.90,1105,553
1106,86.10,1106,553
1107,86.25,1107,554
1108,86.42,1108,554
1109,86.55,1109,555
1110,86.65,1110,555
1111,86.77,1111,556
1112,86.83,1112,556
1113,86.92,1113,557
1114,86.97,1114,557
1115,87.02,1115,558
1116,87.05,1116,558
1117,87.12,1117,559
1118,87.18,1118,559
1119,87.25,1119,560
1120,87.35,1120,560
1121,87.43,1121,561
1122,87.52,1122,561
1123,87.68,1123,562
1124,87.87,1124,562
1125,87.97,1125,563
1126,88.07,1126,563
1127,88.18,1127,564
1128,88.25,1128,564
1129,88.28,1129,565
1130,88.32,1130,565
1131,88.25,1131,566
1132,88.20,1132,566
1133,88.20,1133,567
1134,88.20,1134,567
1135,88.13,1135,568
1136,88.08,1136,568
1137,88.02,1137,569
1138,87.97,1138,569
1139,87.90,1139,570
1140,87.75,1140,570
1141,87.72,1141,571
1142,87.68,1142,571
1143,87.65,1143,572
1144,87.62,1144,572
1145,87.62,1145,573
1146,87.65,1146,573
1147,87.62,1147,574
1148,87.55,1148,574
1149,87.47,1149,575
1150,87.40,1150,575
1151,87.33,1151,576
1152,87.32,1152,576
1153,87.27,1153,577
1154,87.20,1154,577
1155,87.13,1155,578
1156,87.08,1156,578
1157,86.98,1157,579
1158,86.92,1158,579
1159,86.82,1159,580
1160,86.68,1160,580
1161,86.65,1161,581
1162,86.68,1162,581
1163,86.68,1163,582
1164,86.70,1164,582
1165,86.65,1165,583
1166,86.63,1166,583
1167,86.70,1167,584
1168,86.72,1168,584
1169,86.72,1169,585
1170,86.72,1170,585
1171,86.68,1171,586
1172,86.68,1172,586
1173,86.68,1173,587
1174,86.70,1174,587
1175,86.75,1175,588
1176,86.87,1176,588
1177,86.95,1177,589
1178,87.03,1178,589
1179,87.12,1179,590
1180,87.13,1180,590
1181,87.13,1181,591
1182,87.10,1182,591
1183,87.03,1183,592
1184,86.98,1184,592
1185,86.95,1185,593
1186,86.92,1186,593
1187,86.85,1187,594
1188,86.85,1188,594
1189,86.85,1189,595
1190,86.82,1190,595
1191,86.77,1191,596
1192,86.70,1192,596
1193,86.62,1193,597
1194,86.53,1194,597
1195,86.52,1195,598
1196,86.50,1196,598
1197,86.47,1197,599
1198,86.43,1198,599
1199,86.43,1199,600
1200,86.47,1200,600
1201,86.43,1201,601
1202,86.38,1202,601
1203,86.33,1203,602
1204,86.27,1204,602
1205,86.22,1205,603
1206,86.18,1206,603
1207,86.18,1207,604
1208,86.22,1208,604
1209,86.30,1209,605
1210,86.38,1210,605
1211,86.52,1211,606
1212,86.68,1212,606
1213,86.88,1213,607
1214,87.12,1214,607
1215,87.33,1215,608
1216,87.55,1216,608
1217,87.75,1217,609
1218,87.97,1218,609
1219,88.20,1219,610
1220,88.45,1220,610
1221,88.57,1221,611
1222,88.63,1222,611
1223,88.72,1223,612
1224,88.80,1224,612
1225,88.85,1225,613
1226,88.92,1226,613
1227,88.88,1227,614
1228,88.87,1228,614
1229,88.88,1229,615
1230,88.92,1230,615
1231,88.97,1231,616
1232,89.02,1232,616
1233,89.07,1233,617
1234,89.10,1234,617
1235,89.15,1235,618
1236,89.18,1236,618
1237,89.20,1237,619
1238,89.22,1238,619
1239,89.22,1239,620
1240,89.27,1240,620
1241,89.28,1241,621
1242,89.30,1242,621
1243,89.28,1243,622
1244,89.27,1244,622
1245,89.25,1245,623
1246,89.22,1246,623
1247,89.17,1247,624
1248,89.10,1248,624
1249,89.05,1249,625
1250,89.07,1250,625
1251,89.13,1251,626
1252,89.22,1252,626
1253,89.30,1253,627
1254,89.40,1254,627
1255,89.55,1255,628
1256,89.67,1256,628
1257,89.75,1257,629
1258,89.80,1258,629
1259,89.83,1259,630
1260,89.87,1260,630
1261,90.00,1261,631
1262,90.08,1262,631
1263,90.12,1263,632
1264,90.18,1264,632
1265,90.28,1265,633
1266,90.40,1266,633
1267,90.52,1267,634
1268,90.58,1268,634
1269,90.62,1269,635
1270,90.65,1270,635
1271,90.68,1271,636
1272,90.72,1272,636
1273,90.78,1273,637
1274,90.85,1274,637
1275,90.83,1275,638
1276,90.85,1276,638
1277,90.87,1277,639
1278,90.87,1278,639
1279,90.87,1279,640
1280,90.97,1280,640
1281,91.07,1281,641
1282,91.15,1282,641
1283,91.20,1283,642
1284,91.22,1284,642
1285,91.23,1285,643
1286,91.33,1286,643
1287,91.50,1287,644
1288,91.68,1288,644
1289,91.93,1289,645
1290,92.15,1290,645
1291,92.37,1291,646
1292,92.57,1292,646
1293,92.73,1293,647
1294,92.90,1294,647
1295,93.05,1295,648
1296,93.17,1296,648
1297,93.30,1297,649
1298,93.42,1298,649
1299,93.52,1299,650
1300,93.67,1300,650
1301,93.80,1301,651
1302,93.93,1302,651
1303,94.08,1303,652
1304,94.05,1304,652
1305,94.00,1305,653
1306,93.95,1306,653
1307,93.88,1307,654
1308,93.82,1308,654
1309,93.75,1309,655
1310,93.63,1310,655
1311,93.50,1311,656
1312,93.33,1312,656
1313,93.18,1313,657
1314,93.02,1314,657
1315,92.82,1315,658
1316,92.63,1316,658
1317,92.48,1317,659
1318,92.35,1318,659
1319,92.22,1319,660
1320,92.15,1320,660
1321,91.97,1321,661
1322,91.90,1322,661
1323,91.88,1323,662
1324,91.88,1324,662
1325,91.83,1325,663
1326,91.77,1326,663
1327,91.60,1327,664
1328,91.48,1328,664
1329,91.40,1329,665
1330,91.28,1330,665
1331,91.15,1331,666
1332,91.07,1332,666
1333,91.02,1333,667
1334,90.97,1334,667
1335,91.00,1335,668
1336,90.97,1336,668
1337,91.10,1337,669
1338,91.25,1338,669
1339,91.17,1339,670
1340,90.95,1340,670
1341,90.68,1341,671
1342,90.45,1342,671
1343,90.22,1343,672
1344,90.02,1344,672
1345,89.83,1345,673
1346,89.52,1346,673
1347,89.10,1347,674
1348,88.67,1348,674
1349,88.17,1349,675
1350,87.67,1350,675
1351,87.18,1351,676
1352,86.70,1352,676
1353,86.27,1353,677
1354,85.87,1354,677
1355,85.50,1355,678
1356,85.25,1356,678
1357,85.00,1357,679
1358,84.68,1358,679
1359,84.35,1359,680
1360,83.97,1360,680
1361,83.60,1361,681
1362,83.30,1362,681
1363,83.08,1363,682
1364,83.00,1364,682
1365,82.97,1365,683
1366,82.93,1366,683
1367,82.95,1367,684
1368,82.97,1368,684
1369,82.97,1369,685
1370,83.03,1370,685
1371,83.08,1371,686
1372,83.18,1372,686
1373,83.27,1373,687
1374,83.35,1374,687
1375,83.42,1375,688
1376,83.43,1376,688
1377,83.42,1377,689
1378,83.37,1378,689
1379,83.32,1379,690
1380,83.23,1380,690
1381,83.10,1381,691
1382,82.90,1382,691
1383,82.73,1383,692
1384,82.50,1384,692
1385,82.27,1385,693
1386,82.07,1386,693
1387,81.93,1387,694
1388,81.80,1388,694
1389,81.65,1389,695
1390,81.53,1390,695
1391,81.47,1391,696
1392,81.30,1392,696
1393,81.08,1393,697
1394,80.85,1394,697
1395,80.55,1395,698
1396,80.22,1396,698
1397,79.83,1397,699
1398,79.45,1398,699
1399,79.33,1399,700
1400,79.22,1400,700
1401,79.20,1401,701
1402,79.18,1402,701
1403,79.13,1403,702
1404,79.13,1404,702
1405,79.12,1405,703
1406,79.17,1406,703
1407,79.28,1407,704
1408,79.42,1408,704
1409,79.53,1409,705
1410,79.65,1410,705
1411,79.82,1411,706
1412,79.98,1412,706
1413,80.15,1413,707
1414,80.33,1414,707
1415,80.48,1415,708
1416,80.53,1416,708
1417,80.60,1417,709
1418,80.75,1418,709
1419,80.77,1419,710
1420,80.75,1420,710
1421,80.78,1421,711
1422,80.77,1422,711
1423,80.65,1423,712
1424,80.60,1424,712
1425,80.57,1425,713
1426,80.55,1426,713
1427,80.55,1427,714
1428,80.55,1428,714
1429,80.62,1429,715
1430,80.67,1430,715
1431,80.73,1431,716
1432,80.73,1432,716
1433,80.73,1433,717
1434,80.73,1434,717
1435,80.73,1435,718
1436,80.82,1436,718
1437,80.82,1437,719
1438,80.90,1438,719
1439,80.98,1439,720
1440,81.00,1440,720
1441,81.07,1441,721
1442,81.15,1442,721
1443,81.13,1443,722
1444,81.18,1444,722
1445,81.23,1445,723
1446,81.30,1446,723
1447,81.37,1447,724
1448,81.48,1448,724
1449,81.58,1449,725
1450,81.65,1450,725
1451,81.67,1451,726
1452,81.70,1452,726
1453,81.73,1453,727
1454,81.73,1454,727
1455,81.82,1455,728
1456,81.98,1456,728
1457,82.02,1457,729
1458,82.05,1458,729
1459,82.07,1459,730
1460,82.12,1460,730
1461,82.12,1461,731
1462,82.17,1462,731
1463,82.25,1463,732
1464,82.27,1464,732
1465,82.32,1465,733
1466,82.38,1466,733
1467,82.48,1467,734
1468,82.58,1468,734
1469,82.67,1469,735
1470,82.77,1470,735
1471,82.78,1471,736
1472,82.87,1472,736
1473,82.90,1473,737
1474,82.88,1474,737
1475,82.92,1475,738
1476,82.97,1476,738
1477,83.00,1477,739
1478,83.00,1478,739
1479,83.12,1479,740
1480,83.23,1480,740
1481,83.37,1481,741
1482,83.52,1482,741
1483,83.58,1483,742
1484,83.65,1484,742
1485,83.68,1485,743
1486,83.72,1486,743
1487,83.77,1487,744
1488,83.85,1488,744
1489,83.88,1489,745
1490,83.95,1490,745
1491,84.02,1491,746
1492,84.08,1492,746
1493,84.17,1493,747
1494,84.23,1494,747
1495,84.30,1495,748
1496,84.33,1496,748
1497,84.48,1497,749
1498,84.58,1498,749
1499,84.67,1499,750
1500,84.78,1500,750
1501,84.92,1501,751
1502,85.00,1502,751
1503,85.05,1503,752
1504,85.08,1504,752
1505,85.12,1505,753
1506,85.07,1506,753
1507,85.07,1507,754
1508,85.15,1508,754
1509,85.23,1509,755
1510,85.35,1510,755
1511,85.47,1511,756
1512,85.60,1512,756
1513,85.68,1513,757
1514,85.80,1514,757
1515,85.90,1515,758
1516,85.93,1516,758
1517,86.00,1517,759
1518,86.07,1518,759
1519,86.08,1519,760
1520,86.12,1520,760
1521,86.15,1521,761
1522,86.12,1522,761
1523,86.13,1523,762
1524,86.12,1524,762
1525,86.07,1525,763
1526,85.95,1526,763
1527,85.62,1527,764
1528,85.40,1528,764
1529,85.22,1529,765
1530,85.03,1530,765
1531,84.88,1531,766
1532,84.72,1532,766
1533,84.58,1533,767
1534,84.57,1534,767
1535,84.50,1535,768
1536,84.48,1536,768
1537,84.45,1537,769
1538,84.45,1538,769
1539,84.55,1539,770
1540,84.63,1540,770
1541,84.63,1541,771
1542,84.60,1542,771
1543,84.57,1543,772
1544,84.55,1544,772
1545,84.53,1545,773
1546,84.38,1546,773
1547,84.18,1547,774
1548,83.93,1548,774
1549,83.67,1549,775
1550,83.33,1550,775
1551,83.03,1551,776
1552,82.77,1552,776
1553,82.38,1553,777
1554,82.05,1554,777
1555,81.67,1555,778
1556,81.28,1556,778
1557,80.90,1557,779
1558,80.50,1558,779
1559,80.12,1559,780
1560,79.77,1560,780
1561,79.42,1561,781
1562,79.08,1562,781
1563,78.92,1563,782
1564,78.72,1564,782
1565,78.47,1565,783
1566,78.37,1566,783
1567,78.22,1567,784
1568,78.23,1568,784
1569,78.22,1569,785
1570,78.20,1570,785
1571,78.17,1571,786
1572,78.13,1572,786
1573,78.12,1573,787
1574,78.12,1574,787
1575,78.13,1575,788
1576,78.20,1576,788
1577,78.27,1577,789
1578,78.33,1578,789
1579,78.42,1579,790
1580,78.50,1580,790
1581,78.58,1581,791
1582,78.67,1582,791
1583,78.65,1583,792
1584,78.75,1584,792
1585,78.85,1585,793
1586,78.98,1586,793
1587,79.27,1587,794
1588,79.38,1588,794
1589,79.45,1589,795
1590,79.57,1590,795
1591,79.70,1591,796
1592,79.77,1592,796
1593,79.83,1593,797
1594,79.82,1594,797
1595,79.80,1595,798
1596,79.73,1596,798
1597,79.68,1597,799
1598,79.63,1598,799
1599,79.53,1599,800
1600,79.43,1600,800
1601,79.37,1601,801
1602,79.27,1602,801
1603,79.28,1603,802
1604,79.28,1604,802
1605,79.23,1605,803
1606,79.33,1606,803
1607,79.42,1607,804
1608,79.53,1608,804
1609,79.68,1609,805
1610,79.80,1610,805
1611,79.93,1611,806
1612,80.07,1612,806
1613,80.30,1613,807
1614,80.47,1614,807
1615,80.68,1615,808
1616,80.92,1616,808
1617,81.10,1617,809
1618,81.28,1618,809
1619,81.45,1619,810
1620,81.57,1620,810
1621,81.72,1621,811
1622,81.92,1622,811
1623,82.05,1623,812
1624,82.18,1624,812
1625,82.37,1625,813
1626,82.47,1626,813
1627,82.62,1627,814
1628,82.45,1628,814
1629,82.35,1629,815
1630,82.23,1630,815
1631,82.15,1631,816
1632,82.08,1632,816
1633,82.05,1633,817
1634,82.00,1634,817
1635,81.93,1635,818
1636,81.85,1636,818
1637,81.78,1637,819
1638,81.72,1638,819
1639,81.70,1639,820
1640,81.67,1640,820
1641,81.67,1641,821
1642,81.68,1642,821
1643,81.77,1643,822
1644,81.80,1644,822
1645,81.82,1645,823
1646,81.78,1646,823
1647,81.70,1647,824
1648,81.65,1648,824
1649,81.62,1649,825
1650,81.53,1650,825
1651,81.42,1651,826
1652,81.32,1652,826
1653,81.22,1653,827
1654,81.10,1654,827
1655,80.97,1655,828
1656,80.83,1656,828
1657,80.75,1657,829
1658,80.65,1658,829
1659,80.55,1659,830
1660,80.47,1660,830
1661,80.38,1661,831
1662,80.22,1662,831
1663,80.00,1663,832
1664,79.75,1664,832
1665,79.55,1665,833
1666,79.32,1666,833
1667,79.28,1667,834
1668,79.22,1668,834
1669,79.18,1669,835
1670,79.17,1670,835
1671,79.12,1671,836
1672,79.05,1672,836
1673,79.00,1673,837
1674,79.00,1674,837
1675,78.97,1675,838
1676,78.93,1676,838
1677,79.03,1677,839
1678,79.15,1678,839
1679,79.25,1679,840
1680,79.35,1680,840
1681,79.42,1681,841
1682,79.42,1682,841
1683,79.40,1683,842
1684,79.38,1684,842
1685,79.35,1685,843
1686,79.30,1686,843
1687,79.23,1687,844
1688,79.18,1688,844
1689,79.08,1689,845
1690,78.93,1690,845
1691,78.78,1691,846
1692,78.62,1692,846
1693,78.43,1693,847
1694,78.27,1694,847
1695,78.08,1695,848
1696,77.90,1696,848
1697,77.70,1697,849
1698,77.47,1698,849
1699,77.20,1699,850
1700,76.92,1700,850
1701,76.60,1701,851
1702,76.25,1702,851
1703,75.92,1703,852
1704,75.58,1704,852
1705,75.27,1705,853
1706,74.95,1706,853
1707,74.80,1707,854
1708,74.65,1708,854
1709,74.55,1709,855
1710,74.47,1710,855
1711,74.43,1711,856
1712,74.38,1712,856
1713,74.32,1713,857
1714,74.18,1714,857
1715,74.03,1715,858
1716,73.92,1716,858
1717,74.08,1717,859
1718,74.25,1718,859
1719,74.47,1719,860
1720,74.85,1720,860
1721,75.25,1721,861
1722,75.78,1722,861
1723,76.33,1723,862
1724,76.92,1724,862
1725,77.48,1725,863
1726,78.02,1726,863
1727,78.35,1727,864
1728,78.67,1728,864
1729,78.93,1729,865
1730,79.00,1730,865
1731,79.13,1731,866
1732,79.23,1732,866
1733,79.30,1733,867
1734,79.33,1734,867
1735,79.37,1735,868
1736,79.37,1736,868
1737,79.28,1737,869
1738,79.17,1738,869
1739,79.03,1739,870
1740,78.92,1740,870
1741,78.82,1741,871
1742,78.77,1742,871
1743,78.73,1743,872
1744,78.72,1744,872
1745,78.72,1745,873
1746,78.75,1746,873
1747,78.78,1747,874
1748,78.78,1748,874
1749,78.75,1749,875
1750,78.77,1750,875
1751,78.75,1751,876
1752,78.77,1752,876
1753,78.78,1753,877
1754,78.82,1754,877
1755,78.88,1755,878
1756,78.98,1756,878
1757,79.07,1757,879
1758,79.18,1758,879
1759,79.30,1759,880
1760,79.43,1760,880
1761,79.57,1761,881
1762,79.72,1762,881
1763,79.87,1763,882
1764,79.98,1764,882
1765,80.10,1765,883
1766,80.28,1766,883
1767,80.33,1767,884
1768,80.40,1768,884
1769,80.42,1769,885
1770,80.37,1770,885
1771,80.30,1771,886
1772,80.38,1772,886
1773,80.48,1773,887
1774,80.68,1774,887
1775,80.88,1775,888
1776,81.13,1776,888
1777,80.98,1777,889
1778,81.12,1778,889
1779,81.22,1779,890
1780,81.15,1780,890
1781,81.10,1781,891
1782,81.02,1782,891
1783,80.95,1783,892
1784,80.87,1784,892
1785,80.80,1785,893
1786,80.77,1786,893
1787,80.90,1787,894
1788,81.07,1788,894
1789,81.23,1789,895
1790,81.62,1790,895
1791,81.95,1791,896
1792,82.32,1792,896
1793,82.70,1793,897
1794,83.08,1794,897
1795,83.50,1795,898
1796,83.93,1796,898
1797,84.37,1797,899
1798,84.83,1798,899
1799,85.33,1799,900
1800,85.82,1800,900
1801,86.28,1801,901
1802,86.75,1802,901
1803,87.22,1803,902
1804,87.68,1804,902
1805,88.17,1805,903
1806,88.63,1806,903
1807,89.10,1807,904
1808,89.60,1808,904
1809,90.15,1809,905
1810,90.70,1810,905
1811,91.25,1811,906
1812,91.75,1812,906
1813,92.25,1813,907
1814,92.72,1814,907
1815,93.17,1815,908
1816,93.62,1816,908
1817,94.07,1817,909
1818,94.53,1818,909
1819,95.03,1819,910
1820,95.48,1820,910
1821,95.92,1821,911
1822,96.35,1822,911
1823,96.75,1823,912
1824,97.18,1824,912
1825,97.62,1825,913
1826,98.00,1826,913
1827,98.37,1827,914
1828,98.72,1828,914
1829,99.12,1829,915
1830,99.48,1830,915
1831,99.85,1831,916
1832,100.02,1832,916
1833,100.22,1833,917
1834,100.40,1834,917
1835,100.60,1835,918
1836,100.65,1836,918
1837,100.73,1837,919
1838,100.53,1838,919
1839,100.32,1839,920
1840,100.08,1840,920
1841,99.77,1841,921
1842,99.50,1842,921
1843,99.25,1843,922
1844,99.02,1844,922
1845,98.78,1845,923
1846,98.57,1846,923
1847,98.20,1847,924
1848,97.85,1848,924
1849,97.52,1849,925
1850,97.18,1850,925
1851,96.82,1851,926
1852,96.45,1852,926
1853,96.07,1853,927
1854,95.57,1854,927
1855,95.07,1855,928
1856,94.58,1856,928
1857,94.12,1857,929
1858,93.67,1858,929
1859,93.30,1859,930
1860,92.92,1860,930
1861,92.48,1861,931
1862,92.07,1862,931
1863,91.65,1863,932
1864,91.15,1864,932
1865,90.63,1865,933
1866,90.13,1866,933
1867,89.58,1867,934
1868,88.98,1868,934
1869,88.38,1869,935
1870,87.80,1870,935
1871,87.48,1871,936
1872,87.18,1872,936
1873,86.97,1873,937
1874,86.72,1874,937
1875,86.45,1875,938
1876,86.13,1876,938
1877,85.85,1877,939
1878,85.50,1878,939
1879,85.15,1879,940
1880,85.12,1880,940
1881,85.12,1881,941
1882,85.12,1882,941
1883,85.17,1883,942
1884,85.18,1884,942
1885,85.23,1885,943
1886,85.30,1886,943
1887,85.42,1887,944
1888,85.55,1888,944
1889,85.67,1889,945
1890,85.87,1890,945
1891,86.05,1891,946
1892,86.30,1892,946
1893,86.52,1893,947
1894,86.72,1894,947
1895,86.93,1895,948
1896,87.22,1896,948
1897,87.53,1897,949
1898,87.85,1898,949
1899,88.17,1899,950
1900,88.50,1900,950
1901,88.88,1901,951
1902,89.23,1902,951
1903,89.55,1903,952
1904,89.83,1904,952
1905,90.12,1905,953
1906,90.38,1906,953
1907,90.62,1907,954
1908,90.80,1908,954
1909,90.95,1909,955
1910,91.07,1910,955
1911,91.18,1911,956
1912,91.30,1912,956
1913,91.43,1913,957
1914,91.68,1914,957
1915,91.93,1915,958
1916,92.17,1916,958
1917,92.38,1917,959
1918,92.60,1918,959
1919,92.78,1919,960
1920,93.05,1920,960
1921,93.40,1921,961
1922,93.75,1922,961
1923,94.10,1923,962
1924,94.55,1924,962
1925,95.00,1925,963
1926,95.45,1926,963
1927,95.90,1927,964
1928,96.38,1928,964
1929,96.85,1929,965
1930,97.28,1930,965
1931,97.47,1931,966
1932,97.72,1932,966
1933,97.90,1933,967
1934,98.12,1934,967
1935,98.32,1935,968
1936,98.55,1936,968
1937,98.78,1937,969
1938,99.05,1938,969
1939,99.38,1939,970
1940,99.22,1940,970
1941,99.03,1941,971
1942,98.85,1942,971
1943,98.63,1943,972
1944,98.45,1944,972
1945,98.27,1945,973
1946,98.08,1946,973
1947,97.75,1947,974
1948,97.38,1948,974
1949,97.05,1949,975
1950,96.72,1950,975
1951,96.38,1951,976
1952,96.05,1952,976
1953,95.72,1953,977
1954,95.32,1954,977
1955,94.93,1955,978
1956,94.53,1956,978
1957,94.17,1957,979
1958,93.80,1958,979
1959,93.43,1959,980
1960,93.07,1960,980
1961,92.72,1961,981
1962,92.35,1962,981
1963,92.00,1963,982
1964,91.63,1964,982
1965,91.18,1965,983
1966,90.77,1966,983
1967,90.37,1967,984
1968,90.00,1968,984
1969,89.62,1969,985
1970,89.27,1970,985
1971,88.90,1971,986
1972,88.55,1972,986
1973,88.23,1973,987
1974,87.97,1974,987
1975,87.70,1975,988
1976,87.45,1976,988
1977,87.18,1977,989
1978,86.92,1978,989
1979,86.58,1979,990
1980,86.13,1980,990
1981,85.67,1981,991
1982,85.18,1982,991
1983,84.67,1983,992
1984,84.15,1984,992
1985,83.62,1985,993
1986,83.05,1986,993
1987,82.53,1987,994
1988,82.03,1988,994
1989,81.55,1989,995
1990,81.18,1990,995
1991,80.77,1991,996
1992,80.28,1992,996
1993,79.77,1993,997
1994,79.30,1994,997
1995,78.87,1995,998
1996,78.43,1996,998
1997,78.00,1997,999
1998,77.62,1998,999
1999,77.13,1999,1000
2000,76.88,2000,1000
2001,76.65,2001,1001
2002,76.43,2002,1001
2003,76.22,2003,1002
2004,75.98,2004,1002
2005,75.73,2005,1003
2006,75.47,2006,1003
2007,75.33,2007,1004
2008,75.22,2008,1004
2009,75.02,2009,1005
2010,74.80,2010,1005
2011,74.58,2011,1006
2012,74.38,2012,1006
2013,74.17,2013,1007
2014,74.00,2014,1007
2015,73.83,2015,1008
2016,73.68,2016,1008
2017,73.52,2017,1009
2018,73.35,2018,1009
2019,73.20,2019,1010
2020,73.07,2020,1010
2021,72.93,2021,1011
2022,72.83,2022,1011
2023,72.72,2023,1012
2024,72.65,2024,1012
2025,72.67,2025,1013
2026,72.68,2026,1013
2027,72.72,2027,1014
2028,72.73,2028,1014
2029,72.80,2029,1015
2030,72.87,2030,1015
2031,72.97,2031,1016
2032,73.07,2032,1016
2033,73.13,2033,1017
2034,73.17,2034,1017
2035,73.20,2035,1018
2036,73.23,2036,1018
2037,73.30,2037,1019
2038,73.33,2038,1019
2039,73.40,2039,1020
2040,73.52,2040,1020
2041,73.60,2041,1021
2042,73.73,2042,1021
2043,73.90,2043,1022
2044,74.08,2044,1022
2045,74.25,2045,1023
2046,74.42,2046,1023
2047,74.63,2047,1024
2048,74.87,2048,1024
2049,75.08,2049,1025
2050,75.17,2050,1025
2051,75.33,2051,1026
2052,75.55,2052,1026
2053,75.82,2053,1027
2054,76.05,2054,1027
2055,76.27,2055,1028
2056,76.50,2056,1028
2057,76.73,2057,1029
2058,76.95,2058,1029
2059,77.20,2059,1030
2060,77.45,2060,1030
2061,77.70,2061,1031
2062,77.95,2062,1031
2063,78.23,2063,1032
2064,78.52,2064,1032
2065,78.82,2065,1033
2066,79.13,2066,1033
2067,79.45,2067,1034
2068,79.77,2068,1034
2069,80.12,2069,1035
2070,80.50,2070,1035
2071,80.88,2071,1036
2072,81.27,2072,1036
2073,81.68,2073,1037
2074,82.12,2074,1037
2075,82.53,2075,1038
2076,82.95,2076,1038
2077,83.37,2077,1039
2078,83.78,2078,1039
2079,84.18,2079,1040
2080,84.60,2080,1040
2081,85.02,2081,1041
2082,85.42,2082,1041
2083,85.83,2083,1042
2084,86.23,2084,1042
2085,86.62,2085,1043
2086,86.98,2086,1043
2087,87.35,2087,1044
2088,87.75,2088,1044
2089,88.13,2089,1045
2090,88.53,2090,1045
2091,88.93,2091,1046
2092,89.35,2092,1046
2093,89.77,2093,1047
2094,90.18,2094,1047
2095,90.65,2095,1048
2096,91.07,2096,1048
2097,91.47,2097,1049
2098,91.92,2098,1049
2099,92.37,2099,1050
2100,92.80,2100,1050
2101,93.25,2101,1051
2102,93.62,2102,1051
2103,93.98,2103,1052
2104,94.33,2104,1052
2105,94.75,2105,1053
2106,95.13,2106,1053
2107,95.45,2107,1054
2108,95.75,2108,1054
2109,96.08,2109,1055
2110,96.43,2110,1055
2111,96.77,2111,1056
2112,97.07,2112,1056
2113,97.30,2113,1057
2114,97.52,2114,1057
2115,97.73,2115,1058
2116,97.92,2116,1058
2117,98.07,2117,1059
2118,98.13,2118,1059
2119,98.15,2119,1060
2120,98.17,2120,1060
2121,98.17,2121,1061
2122,98.17,2122,1061
2123,98.17,2123,1062
2124,98.17,2124,1062
2125,98.17,2125,1063
2126,98.20,2126,1063
2127,98.20,2127,1064
2128,98.17,2128,1064
2129,98.15,2129,1065
2130,98.12,2130,1065
2131,98.10,2131,1066
2132,98.07,2132,1066
2133,98.13,2133,1067
2134,98.18,2134,1067
2135,98.23,2135,1068
2136,98.25,2136,1068
2137,98.23,2137,1069
2138,98.18,2138,1069
2139,98.10,2139,1070
2140,97.98,2140,1070
2141,97.85,2141,1071
2142,97.70,2142,1071
2143,97.55,2143,1072
2144,97.38,2144,1072
2145,97.23,2145,1073
2146,97.08,2146,1073
2147,96.95,2147,1074
2148,96.82,2148,1074
2149,96.73,2149,1075
2150,96.68,2150,1075
2151,96.65,2151,1076
2152,96.62,2152,1076
2153,96.58,2153,1077
2154,96.55,2154,1077
2155,96.48,2155,1078
2156,96.47,2156,1078
2157,96.45,2157,1079
2158,96.42,2158,1079
2159,96.40,2159,1080
2160,96.45,2160,1080
2161,96.50,2161,1081
2162,96.60,2162,1081
2163,96.72,2163,1082
2164,96.82,2164,1082
2165,96.88,2165,1083
2166,97.02,2166,1083
2167,97.17,2167,1084
2168,97.30,2168,1084
2169,97.42,2169,1085
2170,97.55,2170,1085
2171,97.68,2171,1086
2172,97.78,2172,1086
2173,97.93,2173,1087
2174,98.10,2174,1087
2175,98.28,2175,1088
2176,98.50,2176,1088
2177,98.73,2177,1089
2178,99.05,2178,1089
2179,99.38,2179,1090
2180,99.73,2180,1090
2181,100.08,2181,1091
2182,100.40,2182,1091
2183,100.70,2183,1092
2184,101.00,2184,1092
2185,101.28,2185,1093
2186,101.53,2186,1093
2187,101.82,2187,1094
2188,102.13,2188,1094
2189,102.43,2189,1095
2190,102.73,2190,1095
2191,103.02,2191,1096
2192,103.30,2192,1096
2193,103.48,2193,1097
2194,103.68,2194,1097
2195,103.90,2195,1098
2196,104.15,2196,1098
2197,104.43,2197,1099
2198,104.75,2198,1099
2199,105.10,2199,1100
2200,105.45,2200,1100
2201,105.83,2201,1101
2202,106.23,2202,1101
2203,106.62,2203,1102
2204,107.00,2204,1102
2205,107.37,2205,1103
2206,107.70,2206,1103
2207,108.00,2207,1104
2208,108.25,2208,1104
2209,108.43,2209,1105
2210,108.57,2210,1105
2211,108.68,2211,1106
2212,108.78,2212,1106
2213,108.88,2213,1107
2214,108.98,2214,1107
2215,109.07,2215,1108
2216,109.13,2216,1108
2217,109.20,2217,1109
2218,109.25,2218,1109
2219,109.28,2219,1110
2220,109.28,2220,1110
2221,109.28,2221,1111
2222,109.27,2222,1111
2223,109.23,2223,1112
2224,109.20,2224,1112
2225,109.17,2225,1113
2226,109.10,2226,1113
2227,109.03,2227,1114
2228,108.98,2228,1114
2229,108.93,2229,1115
2230,108.87,2230,1115
2231,108.80,2231,1116
2232,108.72,2232,1116
2233,108.62,2233,1117
2234,108.50,2234,1117
2235,108.37,2235,1118
2236,108.22,2236,1118
2237,108.03,2237,1119
2238,107.83,2238,1119
2239,107.57,2239,1120
2240,107.32,2240,1120
2241,107.10,2241,1121
2242,106.88,2242,1121
2243,106.70,2243,1122
2244,106.52,2244,1122
2245,106.37,2245,1123
2246,106.18,2246,1123
2247,105.98,2247,1124
2248,105.77,2248,1124
2249,105.57,2249,1125
2250,105.33,2250,1125
2251,105.17,2251,1126
2252,104.98,2252,1126
2253,104.83,2253,1127
2254,104.68,2254,1127
2255,104.50,2255,1128
2256,104.32,2256,1128
2257,104.12,2257,1129
2258,103.90,2258,1129
2259,103.68,2259,1130
2260,103.48,2260,1130
2261,103.27,2261,1131
2262,103.03,2262,1131
2263,102.82,2263,1132
2264,102.60,2264,1132
2265,102.38,2265,1133
2266,102.18,2266,1133
2267,102.00,2267,1134
2268,101.85,2268,1134
2269,101.72,2269,1135
2270,101.58,2270,1135
2271,101.47,2271,1136
2272,101.35,2272,1136
2273,101.23,2273,1137
2274,101.10,2274,1137
2275,100.97,2275,1138
2276,100.83,2276,1138
2277,100.70,2277,1139
2278,100.57,2278,1139
2279,100.45,2279,1140
2280,100.35,2280,1140
2281,100.27,2281,1141
2282,100.20,2282,1141
2283,100.13,2283,1142
2284,100.07,2284,1142
2285,100.00,2285,1143
2286,99.92,2286,1143
2287,99.82,2287,1144
2288,99.68,2288,1144
2289,99.53,2289,1145
2290,99.42,2290,1145
2291,99.27,2291,1146
2292,99.13,2292,1146
2293,98.95,2293,1147
2294,98.77,2294,1147
2295,98.63,2295,1148
2296,98.53,2296,1148
2297,98.45,2297,1149
2298,98.37,2298,1149
2299,98.33,2299,1150
2300,98.25,2300,1150
2301,98.17,2301,1151
2302,98.08,2302,1151
2303,97.90,2303,1152
2304,97.70,2304,1152
2305,97.48,2305,1153
2306,97.32,2306,1153
2307,97.17,2307,1154
2308,97.03,2308,1154
2309,96.90,2309,1155
2310,96.85,2310,1155
2311,96.72,2311,1156
2312,96.57,2312,1156
2313,96.37,2313,1157
2314,96.15,2314,1157
2315,95.95,2315,1158
2316,95.77,2316,1158
2317,95.58,2317,1159
2318,95.35,2318,1159
2319,95.07,2319,1160
2320,95.03,2320,1160
2321,94.90,2321,1161
2322,94.80,2322,1161
2323,94.72,2323,1162
2324,94.63,2324,1162
2325,94.57,2325,1163
2326,94.50,2326,1163
2327,94.40,2327,1164
2328,94.38,2328,1164
2329,94.35,2329,1165
2330,94.33,2330,1165
2331,94.32,2331,1166
2332,94.35,2332,1166
2333,94.40,2333,1167
2334,94.48,2334,1167
2335,94.58,2335,1168
2336,94.72,2336,1168
2337,94.85,2337,1169
2338,94.98,2338,1169
2339,95.10,2339,1170
2340,95.22,2340,1170
2341,95.30,2341,1171
2342,95.42,2342,1171
2343,95.53,2343,1172
2344,95.65,2344,1172
2345,95.75,2345,1173
2346,95.88,2346,1173
2347,96.05,2347,1174
2348,96.23,2348,1174
2349,96.38,2349,1175
2350,96.53,2350,1175
2351,96.73,2351,1176
2352,96.93,2352,1176
2353,97.22,2353,1177
2354,97.53,2354,1177
2355,97.82,2355,1178
2356,98.17,2356,1178
2357,98.53,2357,1179
2358,98.92,2358,1179
2359,99.42,2359,1180
2360,99.95,2360,1180
2361,100.43,2361,1181
2362,100.93,2362,1181
2363,101.52,2363,1182
2364,102.12,2364,1182
2365,102.68,2365,1183
2366,103.23,2366,1183
2367,103.78,2367,1184
2368,104.33,2368,1184
2369,104.85,2369,1185
2370,105.33,2370,1185
2371,105.85,2371,1186
2372,106.40,2372,1186
2373,106.97,2373,1187
2374,107.58,2374,1187
2375,108.22,2375,1188
2376,108.85,2376,1188
2377,109.48,2377,1189
2378,110.20,2378,1189
2379,110.97,2379,1190
2380,111.48,2380,1190
2381,112.13,2381,1191
2382,112.75,2382,1191
2383,113.37,2383,1192
2384,114.00,2384,1192
2385,114.63,2385,1193
2386,115.28,2386,1193
2387,115.97,2387,1194
2388,116.57,2388,1194
2389,117.17,2389,1195
2390,117.77,2390,1195
2391,118.35,2391,1196
2392,118.87,2392,1196
2393,119.38,2393,1197
2394,119.87,2394,1197
2395,120.33,2395,1198
2396,120.77,2396,1198
2397,121.20,2397,1199
2398,121.63,2398,1199
2399,122.05,2399,1200
2400,122.48,2400,1200
2401,122.92,2401,1201
2402,123.30,2402,1201
2403,123.70,2403,1202
2404,124.08,2404,1202
2405,124.48,2405,1203
2406,124.88,2406,1203
2407,125.27,2407,1204
2408,125.67,2408,1204
2409,126.12,2409,1205
2410,126.57,2410,1205
2411,126.98,2411,1206
2412,127.42,2412,1206
2413,127.83,2413,1207
2414,128.23,2414,1207
2415,128.63,2415,1208
2416,128.92,2416,1208
2417,129.22,2417,1209
2418,129.48,2418,1209
2419,129.63,2419,1210
2420,129.77,2420,1210
2421,129.90,2421,1211
2422,130.05,2422,1211
2423,130.18,2423,1212
2424,130.32,2424,1212
2425,130.47,2425,1213
2426,130.62,2426,1213
2427,130.77,2427,1214
2428,130.92,2428,1214
2429,131.08,2429,1215
2430,131.22,2430,1215
2431,131.33,2431,1216
2432,131.43,2432,1216
2433,131.52,2433,1217
2434,131.57,2434,1217
2435,131.60,2435,1218
2436,131.63,2436,1218
2437,131.65,2437,1219
2438,131.65,2438,1219
2439,131.65,2439,1220
2440,131.65,2440,1220
2441,131.58,2441,1221
2442,131.52,2442,1221
2443,131.42,2443,1222
2444,131.27,2444,1222
2445,131.12,2445,1223
2446,130.95,2446,1223
2447,130.75,2447,1224
2448,130.53,2448,1224
2449,130.33,2449,1225
2450,130.08,2450,1225
2451,129.82,2451,1226
2452,129.53,2452,1226
2453,129.23,2453,1227
2454,128.92,2454,1227
2455,128.58,2455,1228
2456,128.22,2456,1228
2457,127.82,2457,1229
2458,127.40,2458,1229
2459,126.97,2459,1230
2460,126.48,2460,1230
2461,126.02,2461,1231
2462,125.55,2462,1231
2463,125.07,2463,1232
2464,124.60,2464,1232
2465,124.15,2465,1233
2466,123.68,2466,1233
2467,123.22,2467,1234
2468,122.75,2468,1234
2469,122.25,2469,1235
2470,121.73,2470,1235
2471,121.20,2471,1236
2472,120.65,2472,1236
2473,120.05,2473,1237
2474,119.43,2474,1237
2475,118.80,2475,1238
2476,118.17,2476,1238
2477,117.50,2477,1239
2478,116.87,2478,1239
2479,116.27,2479,1240
2480,115.68,2480,1240
2481,115.13,2481,1241
2482,114.60,2482,1241
2483,114.08,2483,1242
2484,113.57,2484,1242
2485,113.05,2485,1243
2486,112.53,2486,1243
2487,112.02,2487,1244
2488,111.48,2488,1244
2489,110.95,2489,1245
2490,110.42,2490,1245
2491,109.88,2491,1246
2492,109.33,2492,1246
2493,108.80,2493,1247
2494,108.27,2494,1247
2495,107.70,2495,1248
2496,107.10,2496,1248
2497,106.50,2497,1249
2498,105.87,2498,1249
2499,105.22,2499,1250
2500,104.55,2500,1250
2501,103.90,2501,1251
2502,103.25,2502,1251
2503,102.62,2503,1252
2504,102.03,2504,1252
2505,101.47,2505,1253
2506,100.92,2506,1253
2507,100.40,2507,1254
2508,99.88,2508,1254
2509,99.37,2509,1255
2510,98.88,2510,1255
2511,98.40,2511,1256
2512,97.95,2512,1256
2513,97.48,2513,1257
2514,97.03,2514,1257
2515,96.58,2515,1258
2516,96.17,2516,1258
2517,95.77,2517,1259
2518,95.38,2518,1259
2519,95.02,2519,1260
2520,94.63,2520,1260
2521,94.23,2521,1261
2522,93.83,2522,1261
2523,93.43,2523,1262
2524,93.00,2524,1262
2525,92.53,2525,1263
2526,92.10,2526,1263
2527,91.67,2527,1264
2528,91.23,2528,1264
2529,90.83,2529,1265
2530,90.48,2530,1265
2531,90.25,2531,1266
2532,90.03,2532,1266
2533,89.88,2533,1267
2534,89.77,2534,1267
2535,89.63,2535,1268
2536,89.52,2536,1268
2537,89.43,2537,1269
2538,89.30,2538,1269
2539,89.13,2539,1270
2540,88.93,2540,1270
2541,88.72,2541,1271
2542,88.40,2542,1271
2543,88.08,2543,1272
2544,87.78,2544,1272
2545,87.40,2545,1273
2546,87.00,2546,1273
2547,86.62,2547,1274
2548,86.22,2548,1274
2549,85.78,2549,1275
2550,85.32,2550,1275
2551,84.87,2551,1276
2552,84.47,2552,1276
2553,84.07,2553,1277
2554,83.67,2554,1277
2555,83.28,2555,1278
2556,82.93,2556,1278
2557,82.62,2557,1279
2558,82.33,2558,1279
2559,82.10,2559,1280
2560,81.88,2560,1280
2561,81.73,2561,1281
2562,81.60,2562,1281
2563,81.50,2563,1282
2564,81.43,2564,1282
2565,81.35,2565,1283
2566,81.30,2566,1283
2567,81.28,2567,1284
2568,81.32,2568,1284
2569,81.35,2569,1285
2570,81.40,2570,1285
2571,81.47,2571,1286
2572,81.53,2572,1286
2573,81.62,2573,1287
2574,81.70,2574,1287
2575,81.78,2575,1288
2576,81.88,2576,1288
2577,81.98,2577,1289
2578,82.08,2578,1289
2579,82.22,2579,1290
2580,82.40,2580,1290
2581,82.50,2581,1291
2582,82.62,2582,1291
2583,82.75,2583,1292
2584,82.87,2584,1292
2585,82.98,2585,1293
2586,83.05,2586,1293
2587,83.08,2587,1294
2588,83.10,2588,1294
2589,83.12,2589,1295
2590,83.08,2590,1295
2591,83.03,2591,1296
2592,82.95,2592,1296
2593,82.82,2593,1297
2594,82.67,2594,1297
2595,82.57,2595,1298
2596,82.45,2596,1298
2597,82.33,2597,1299
2598,82.23,2598,1299
2599,82.17,2599,1300
2600,82.10,2600,1300
2601,82.05,2601,1301
2602,82.05,2602,1301
2603,82.03,2603,1302
2604,82.00,2604,1302
2605,82.05,2605,1303
2606,82.10,2606,1303
2607,82.15,2607,1304
2608,82.20,2608,1304
2609,82.28,2609,1305
2610,82.42,2610,1305
2611,82.57,2611,1306
2612,82.72,2612,1306
2613,82.78,2613,1307
2614,82.87,2614,1307
2615,82.97,2615,1308
2616,83.10,2616,1308
2617,83.20,2617,1309
2618,83.25,2618,1309
2619,83.27,2619,1310
2620,83.27,2620,1310
2621,83.27,2621,1311
2622,83.28,2622,1311
2623,83.23,2623,1312
2624,83.15,2624,1312
2625,83.03,2625,1313
2626,82.92,2626,1313
2627,82.77,2627,1314
2628,82.55,2628,1314
2629,82.38,2629,1315
2630,82.22,2630,1315
2631,82.07,2631,1316
2632,81.93,2632,1316
2633,81.92,2633,1317
2634,81.87,2634,1317
2635,81.82,2635,1318
2636,81.73,2636,1318
2637,81.67,2637,1319
2638,81.60,2638,1319
2639,81.50,2639,1320
2640,81.40,2640,1320
2641,81.38,2641,1321
2642,81.38,2642,1321
2643,81.32,2643,1322
2644,81.30,2644,1322
2645,81.30,2645,1323
2646,81.48,2646,1323
2647,81.70,2647,1324
2648,81.93,2648,1324
2649,82.17,2649,1325
2650,82.48,2650,1325
2651,82.68,2651,1326
2652,82.90,2652,1326
2653,83.12,2653,1327
2654,83.33,2654,1327
2655,83.53,2655,1328
2656,83.77,2656,1328
2657,83.95,2657,1329
2658,84.13,2658,1329
2659,84.30,2659,1330
2660,84.48,2660,1330
2661,84.65,2661,1331
2662,84.80,2662,1331
2663,84.98,2663,1332
2664,85.15,2664,1332
2665,85.35,2665,1333
2666,85.58,2666,1333
2667,85.80,2667,1334
2668,86.03,2668,1334
2669,86.28,2669,1335
2670,86.57,2670,1335
2671,86.80,2671,1336
2672,86.98,2672,1336
2673,87.23,2673,1337
2674,87.45,2674,1337
2675,87.65,2675,1338
2676,87.80,2676,1338
2677,87.97,2677,1339
2678,88.20,2678,1339
2679,88.43,2679,1340
2680,88.68,2680,1340
2681,88.90,2681,1341
2682,89.10,2682,1341
2683,89.35,2683,1342
2684,89.58,2684,1342
2685,89.85,2685,1343
2686,90.08,2686,1343
2687,90.35,2687,1344
2688,90.63,2688,1344
2689,90.85,2689,1345
2690,91.05,2690,1345
2691,91.27,2691,1346
2692,91.45,2692,1346
2693,91.50,2693,1347
2694,91.60,2694,1347
2695,91.72,2695,1348
2696,91.90,2696,1348
2697,92.05,2697,1349
2698,92.18,2698,1349
2699,92.32,2699,1350
2700,92.37,2700,1350
2701,92.52,2701,1351
2702,92.63,2702,1351
2703,92.78,2703,1352
2704,92.93,2704,1352
2705,93.12,2705,1353
2706,93.15,2706,1353
2707,93.20,2707,1354
2708,93.32,2708,1354
2709,93.45,2709,1355
2710,93.50,2710,1355
2711,93.60,2711,1356
2712,93.83,2712,1356
2713,94.08,2713,1357
2714,94.32,2714,1357
2715,94.55,2715,1358
2716,94.73,2716,1358
2717,94.93,2717,1359
2718,95.15,2718,1359
2719,95.42,2719,1360
2720,95.68,2720,1360
2721,95.95,2721,1361
2722,96.27,2722,1361
2723,96.57,2723,1362
2724,96.90,2724,1362
2725,97.20,2725,1363
2726,97.45,2726,1363
2727,97.68,2727,1364
2728,97.95,2728,1364
2729,98.18,2729,1365
2730,98.37,2730,1365
2731,98.58,2731,1366
2732,98.83,2732,1366
2733,99.12,2733,1367
2734,99.40,2734,1367
2735,99.68,2735,1368
2736,99.95,2736,1368
2737,100.22,2737,1369
2738,100.47,2738,1369
2739,100.68,2739,1370
2740,100.92,2740,1370
2741,101.13,2741,1371
2742,101.32,2742,1371
2743,101.47,2743,1372
2744,101.63,2744,1372
2745,101.78,2745,1373
2746,101.95,2746,1373
2747,102.10,2747,1374
2748,102.17,2748,1374
2749,102.22,2749,1375
2750,102.30,2750,1375
2751,102.38,2751,1376
2752,102.48,2752,1376
2753,102.53,2753,1377
2754,102.55,2754,1377
2755,102.42,2755,1378
2756,102.25,2756,1378
2757,101.93,2757,1379
2758,101.63,2758,1379
2759,101.37,2759,1380
2760,101.17,2760,1380
2761,100.90,2761,1381
2762,100.65,2762,1381
2763,100.38,2763,1382
2764,100.10,2764,1382
2765,99.82,2765,1383
2766,99.50,2766,1383
2767,99.20,2767,1384
2768,98.80,2768,1384
2769,98.33,2769,1385
2770,97.82,2770,1385
2771,97.30,2771,1386
2772,96.72,2772,1386
2773,96.10,2773,1387
2774,95.47,2774,1387
2775,94.87,2775,1388
2776,94.23,2776,1388
2777,93.63,2777,1389
2778,93.03,2778,1389
2779,92.42,2779,1390
2780,91.87,2780,1390
2781,91.30,2781,1391
2782,90.73,2782,1391
2783,90.13,2783,1392
2784,89.50,2784,1392
2785,88.87,2785,1393
2786,88.17,2786,1393
2787,87.53,2787,1394
2788,86.92,2788,1394
2789,86.28,2789,1395
2790,85.65,2790,1395
2791,84.98,2791,1396
2792,84.33,2792,1396
2793,83.62,2793,1397
2794,83.28,2794,1397
2795,82.97,2795,1398
2796,82.70,2796,1398
2797,82.45,2797,1399
2798,82.23,2798,1399
2799,82.08,2799,1400
2800,81.90,2800,1400
2801,81.68,2801,1401
2802,81.50,2802,1401
2803,81.43,2803,1402
2804,81.37,2804,1402
2805,81.32,2805,1403
2806,81.25,2806,1403
2807,81.17,2807,1404
2808,81.15,2808,1404
2809,81.18,2809,1405
2810,81.20,2810,1405
2811,81.22,2811,1406
2812,81.22,2812,1406
2813,81.27,2813,1407
2814,81.33,2814,1407
2815,81.50,2815,1408
2816,81.68,2816,1408
2817,82.07,2817,1409
2818,82.47,2818,1409
2819,82.87,2819,1410
2820,83.28,2820,1410
2821,83.82,2821,1411
2822,84.32,2822,1411
2823,84.83,2823,1412
2824,85.37,2824,1412
2825,85.87,2825,1413
2826,86.40,2826,1413
2827,86.90,2827,1414
2828,87.43,2828,1414
2829,88.02,2829,1415
2830,88.65,2830,1415
2831,89.27,2831,1416
2832,89.83,2832,1416
2833,90.42,2833,1417
2834,91.03,2834,1417
2835,91.60,2835,1418
2836,92.22,2836,1418
2837,92.82,2837,1419
2838,93.43,2838,1419
2839,94.03,2839,1420
2840,94.58,2840,1420
2841,95.17,2841,1421
2842,95.73,2842,1421
2843,96.27,2843,1422
2844,96.82,2844,1422
2845,97.35,2845,1423
2846,97.98,2846,1423
2847,98.55,2847,1424
2848,99.12,2848,1424
2849,99.75,2849,1425
2850,100.43,2850,1425
2851,101.13,2851,1426
2852,101.80,2852,1426
2853,102.50,2853,1427
2854,102.82,2854,1427
2855,103.13,2855,1428
2856,103.40,2856,1428
2857,103.65,2857,1429
2858,103.88,2858,1429
2859,104.07,2859,1430
2860,104.25,2860,1430
2861,104.45,2861,1431
2862,104.65,2862,1431
2863,104.75,2863,1432
2864,104.83,2864,1432
2865,104.90,2865,1433
2866,104.98,2866,1433
2867,105.03,2867,1434
2868,105.15,2868,1434
2869,105.25,2869,1435
2870,105.37,2870,1435
2871,105.45,2871,1436
2872,105.53,2872,1436
2873,105.63,2873,1437
2874,105.73,2874,1437
2875,105.85,2875,1438
2876,105.97,2876,1438
2877,106.03,2877,1439
2878,106.00,2878,1439
2879,105.97,2879,1440
2880,105.93,2880,1440
2881,105.78,2881,1441
2882,105.65,2882,1441
2883,105.52,2883,1442
2884,105.37,2884,1442
2885,105.27,2885,1443
2886,105.13,2886,1443
2887,105.07,2887,1444
2888,104.98,2888,1444
2889,104.92,2889,1445
2890,104.85,2890,1445
2891,104.77,2891,1446
2892,104.75,2892,1446
2893,104.58,2893,1447
2894,104.48,2894,1447
2895,104.32,2895,1448
2896,104.17,2896,1448
2897,103.97,2897,1449
2898,103.83,2898,1449
2899,103.32,2899,1450
2900,102.80,2900,1450
2901,102.23,2901,1451
2902,101.67,2902,1451
2903,101.15,2903,1452
2904,100.62,2904,1452
2905,100.10,2905,1453
2906,99.57,2906,1453
2907,99.05,2907,1454
2908,98.50,2908,1454
2909,97.87,2909,1455
2910,97.15,2910,1455
2911,96.43,2911,1456
2912,95.73,2912,1456
2913,95.03,2913,1457
2914,94.57,2914,1457
2915,94.12,2915,1458
2916,93.70,2916,1458
2917,93.45,2917,1459
2918,93.15,2918,1459
2919,92.75,2919,1460
2920,92.02,2920,1460
2921,91.28,2921,1461
2922,90.55,2922,1461
2923,89.82,2923,1462
2924,89.08,2924,1462
2925,88.38,2925,1463
2926,87.65,2926,1463
2927,86.95,2927,1464
2928,86.20,2928,1464
2929,85.43,2929,1465
2930,84.63,2930,1465
2931,83.82,2931,1466
2932,83.02,2932,1466
2933,82.22,2933,1467
2934,81.43,2934,1467
2935,80.70,2935,1468
2936,79.95,2936,1468
2937,79.25,2937,1469
2938,78.65,2938,1469
2939,78.05,2939,1470
2940,77.43,2940,1470
2941,76.80,2941,1471
2942,76.15,2942,1471
2943,75.53,2943,1472
2944,74.92,2944,1472
2945,74.25,2945,1473
2946,73.60,2946,1473
2947,72.88,2947,1474
2948,72.18,2948,1474
2949,71.47,2949,1475
2950,70.73,2950,1475
2951,70.02,2951,1476
2952,69.23,2952,1476
2953,68.62,2953,1477
2954,67.93,2954,1477
2955,67.35,2955,1478
2956,66.78,2956,1478
2957,66.28,2957,1479
2958,65.70,2958,1479
2959,65.50,2959,1480
2960,65.28,2960,1480
2961,65.10,2961,1481
2962,64.90,2962,1481
2963,64.68,2963,1482
2964,64.48,2964,1482
2965,64.28,2965,1483
2966,64.08,2966,1483
2967,63.88,2967,1484
2968,63.67,2968,1484
2969,63.48,2969,1485
2970,63.37,2970,1485
2971,63.25,2971,1486
2972,63.13,2972,1486
2973,63.02,2973,1487
2974,62.68,2974,1487
2975,62.33,2975,1488
2976,61.97,2976,1488
2977,61.45,2977,1489
2978,60.98,2978,1489
2979,60.63,2979,1490
2980,60.63,2980,1490
2981,60.65,2981,1491
2982,60.68,2982,1491
2983,60.72,2983,1492
2984,60.75,2984,1492
2985,60.75,2985,1493
2986,60.75,2986,1493
2987,60.77,2987,1494
2988,60.82,2988,1494
2989,60.88,2989,1495
2990,60.93,2990,1495
2991,61.00,2991,1496
2992,61.07,2992,1496
2993,61.13,2993,1497
2994,61.20,2994,1497
2995,61.27,2995,1498
2996,61.28,2996,1498
2997,61.28,2997,1499
2998,61.28,2998,1499
2999,61.25,2999,1500
3000,61.22,3000,1500
3001,61.28,3001,1501
3002,61.35,3002,1501
3003,61.37,3003,1502
3004,61.48,3004,1502
3005,61.58,3005,1503
3006,61.67,3006,1503
3007,61.68,3007,1504
3008,62.20,3008,1504
3009,62.68,3009,1505
3010,63.13,3010,1505
3011,63.65,3011,1506
3012,64.13,3012,1506
3013,64.63,3013,1507
3014,65.07,3014,1507
3015,65.48,3015,1508
3016,65.93,3016,1508
3017,66.33,3017,1509
3018,66.72,3018,1509
3019,67.02,3019,1510
3020,67.30,3020,1510
3021,67.37,3021,1511
3022,67.45,3022,1511
3023,67.55,3023,1512
3024,67.67,3024,1512
3025,67.78,3025,1513
3026,67.92,3026,1513
3027,68.05,3027,1514
3028,68.20,3028,1514
3029,68.37,3029,1515
3030,68.50,3030,1515
3031,68.63,3031,1516
3032,68.77,3032,1516
3033,68.88,3033,1517
3034,68.98,3034,1517
3035,69.08,3035,1518
3036,69.18,3036,1518
3037,69.38,3037,1519
3038,69.57,3038,1519
3039,69.78,3039,1520
3040,70.02,3040,1520
3041,70.28,3041,1521
3042,70.47,3042,1521
3043,70.67,3043,1522
3044,70.90,3044,1522
3045,71.17,3045,1523
3046,71.47,3046,1523
3047,71.73,3047,1524
3048,71.98,3048,1524
3049,72.22,3049,1525
3050,72.50,3050,1525
3051,72.78,3051,1526
3052,73.02,3052,1526
3053,73.25,3053,1527
3054,73.48,3054,1527
3055,73.70,3055,1528
3056,73.97,3056,1528
3057,74.25,3057,1529
3058,74.57,3058,1529
3059,74.92,3059,1530
3060,75.27,3060,1530
3061,75.52,3061,1531
3062,75.80,3062,1531
3063,76.10,3063,1532
3064,76.30,3064,1532
3065,76.53,3065,1533
3066,76.77,3066,1533
3067,77.07,3067,1534
3068,76.87,3068,1534
3069,76.72,3069,1535
3070,76.65,3070,1535
3071,76.55,3071,1536
3072,76.50,3072,1536
3073,76.43,3073,1537
3074,76.42,3074,1537
3075,76.40,3075,1538
3076,76.33,3076,1538
3077,76.23,3077,1539
3078,76.13,3078,1539
3079,76.08,3079,1540
3080,76.05,3080,1540
3081,76.23,3081,1541
3082,76.42,3082,1541
3083,76.60,3083,1542
3084,76.78,3084,1542
3085,76.93,3085,1543
3086,77.08,3086,1543
3087,77.22,3087,1544
3088,77.33,3088,1544
3089,77.43,3089,1545
3090,77.53,3090,1545
3091,77.62,3091,1546
3092,77.68,3092,1546
3093,77.77,3093,1547
3094,77.80,3094,1547
3095,78.12,3095,1548
3096,78.48,3096,1548
3097,78.73,3097,1549
3098,78.93,3098,1549
3099,79.10,3099,1550
3100,79.25,3100,1550
3101,79.35,3101,1551
3102,79.50,3102,1551
3103,79.63,3103,1552
3104,79.77,3104,1552
3105,79.88,3105,1553
3106,79.97,3106,1553
3107,80.05,3107,1554
3108,80.13,3108,1554
3109,80.17,3109,1555
3110,80.17,3110,1555
3111,80.13,3111,1556
3112,80.13,3112,1556
3113,80.12,3113,1557
3114,80.08,3114,1557
3115,80.05,3115,1558
3116,79.98,3116,1558
3117,79.88,3117,1559
3118,79.75,3118,1559
3119,79.63,3119,1560
3120,79.52,3120,1560
3121,79.40,3121,1561
3122,79.27,3122,1561
3123,79.10,3123,1562
3124,79.02,3124,1562
3125,78.92,3125,1563
3126,78.85,3126,1563
3127,78.92,3127,1564
3128,79.00,3128,1564
3129,78.98,3129,1565
3130,78.95,3130,1565
3131,78.87,3131,1566
3132,78.75,3132,1566
3133,78.63,3133,1567
3134,78.52,3134,1567
3135,78.37,3135,1568
3136,78.18,3136,1568
3137,78.12,3137,1569
3138,78.05,3138,1569
3139,78.05,3139,1570
3140,77.95,3140,1570
3141,78.17,3141,1571
3142,78.38,3142,1571
3143,78.62,3143,1572
3144,78.88,3144,1572
3145,79.17,3145,1573
3146,79.47,3146,1573
3147,79.75,3147,1574
3148,80.10,3148,1574
3149,80.18,3149,1575
3150,81.10,3150,1575
3151,82.02,3151,1576
3152,82.93,3152,1576
3153,83.83,3153,1577
3154,84.82,3154,1577
3155,85.45,3155,1578
3156,86.02,3156,1578
3157,86.57,3157,1579
3158,87.15,3158,1579
3159,87.75,3159,1580
3160,88.35,3160,1580
3161,88.95,3161,1581
3162,89.58,3162,1581
3163,90.30,3163,1582
3164,90.43,3164,1582
3165,90.62,3165,1583
3166,90.77,3166,1583
3167,91.00,3167,1584
3168,91.27,3168,1584
3169,91.65,3169,1585
3170,92.03,3170,1585
3171,92.45,3171,1586
3172,92.85,3172,1586
3173,93.17,3173,1587
3174,93.45,3174,1587
3175,93.72,3175,1588
3176,94.02,3176,1588
3177,94.33,3177,1589
3178,94.67,3178,1589
3179,94.80,3179,1590
3180,94.92,3180,1590
3181,95.00,3181,1591
3182,95.07,3182,1591
3183,95.17,3183,1592
3184,95.22,3184,1592
3185,95.30,3185,1593
3186,95.48,3186,1593
3187,95.52,3187,1594
3188,95.45,3188,1594
3189,95.47,3189,1595
3190,95.45,3190,1595
3191,95.45,3191,1596
3192,95.50,3192,1596
3193,95.55,3193,1597
3194,95.70,3194,1597
3195,95.88,3195,1598
3196,96.15,3196,1598
3197,96.37,3197,1599
3198,96.53,3198,1599
3199,96.63,3199,1600
3200,96.80,3200,1600
3201,96.68,3201,1601
3202,96.58,3202,1601
3203,96.52,3203,1602
3204,96.10,3204,1602
3205,95.68,3205,1603
3206,95.23,3206,1603
3207,94.80,3207,1604
3208,94.30,3208,1604
3209,94.08,3209,1605
3210,93.03,3210,1605
3211,92.00,3211,1606
3212,90.98,3212,1606
3213,90.32,3213,1607
3214,89.63,3214,1607
3215,89.08,3215,1608
3216,88.48,3216,1608
3217,87.90,3217,1609
3218,87.38,3218,1609
3219,86.80,3219,1610
3220,86.18,3220,1610
3221,85.25,3221,1611
3222,84.30,3222,1611
3223,83.27,3223,1612
3224,82.80,3224,1612
3225,82.43,3225,1613
3226,82.07,3226,1613
3227,81.63,3227,1614
3228,81.18,3228,1614
3229,80.67,3229,1615
3230,80.15,3230,1615
3231,79.63,3231,1616
3232,79.13,3232,1616
3233,78.75,3233,1617
3234,78.52,3234,1617
3235,78.30,3235,1618
3236,78.08,3236,1618
3237,77.87,3237,1619
3238,77.60,3238,1619
3239,77.50,3239,1620
3240,77.52,3240,1620
3241,77.58,3241,1621
3242,77.65,3242,1621
3243,77.72,3243,1622
3244,77.72,3244,1622
3245,77.67,3245,1623
3246,77.48,3246,1623
3247,77.20,3247,1624
3248,77.02,3248,1624
3249,76.80,3249,1625
3250,76.55,3250,1625
3251,76.45,3251,1626
3252,76.30,3252,1626
3253,76.15,3253,1627
3254,75.93,3254,1627
3255,75.73,3255,1628
3256,75.37,3256,1628
3257,74.97,3257,1629
3258,74.63,3258,1629
3259,74.33,3259,1630
3260,74.07,3260,1630
3261,73.75,3261,1631
3262,73.42,3262,1631
3263,73.32,3263,1632
3264,73.53,3264,1632
3265,73.77,3265,1633
3266,74.03,3266,1633
3267,74.32,3267,1634
3268,74.58,3268,1634
3269,74.82,3269,1635
3270,75.07,3270,1635
3271,75.22,3271,1636
3272,75.37,3272,1636
3273,75.18,3273,1637
3274,74.97,3274,1637
3275,74.68,3275,1638
3276,74.45,3276,1638
3277,74.22,3277,1639
3278,73.88,3278,1639
3279,73.58,3279,1640
3280,73.30,3280,1640
3281,73.35,3281,1641
3282,73.42,3282,1641
3283,73.50,3283,1642
3284,73.58,3284,1642
3285,73.50,3285,1643
3286,73.45,3286,1643
3287,73.37,3287,1644
3288,73.23,3288,1644
3289,73.10,3289,1645
3290,72.95,3290,1645
3291,72.80,3291,1646
3292,72.68,3292,1646
3293,72.57,3293,1647
3294,72.37,3294,1647
3295,72.17,3295,1648
3296,71.95,3296,1648
3297,71.73,3297,1649
3298,71.53,3298,1649
3299,71.35,3299,1650
3300,71.08,3300,1650
3301,70.82,3301,1651
3302,70.57,3302,1651
3303,70.33,3303,1652
3304,70.12,3304,1652
3305,69.90,3305,1653
3306,69.68,3306,1653
3307,69.55,3307,1654
3308,69.38,3308,1654
3309,69.27,3309,1655
3310,69.22,3310,1655
3311,69.17,3311,1656
3312,69.18,3312,1656
3313,69.20,3313,1657
3314,69.20,3314,1657
3315,69.17,3315,1658
3316,69.23,3316,1658
3317,69.32,3317,1659
3318,69.40,3318,1659
3319,69.42,3319,1660
3320,69.43,3320,1660
3321,69.47,3321,1661
3322,69.48,3322,1661
3323,69.20,3323,1662
3324,68.90,3324,1662
3325,68.60,3325,1663
3326,68.28,3326,1663
3327,67.97,3327,1664
3328,67.68,3328,1664
3329,67.42,3329,1665
3330,67.17,3330,1665
3331,66.97,3331,1666
3332,66.83,3332,1666
3333,66.65,3333,1667
3334,66.55,3334,1667
3335,66.45,3335,1668
3336,66.37,3336,1668
3337,66.30,3337,1669
3338,66.33,3338,1669
3339,66.37,3339,1670
3340,66.42,3340,1670
3341,66.43,3341,1671
3342,66.45,3342,1671
3343,66.43,3343,1672
3344,66.42,3344,1672
3345,66.40,3345,1673
3346,66.40,3346,1673
3347,66.43,3347,1674
3348,66.52,3348,1674
3349,66.62,3349,1675
3350,66.73,3350,1675
3351,66.85,3351,1676
3352,66.93,3352,1676
3353,66.98,3353,1677
3354,67.02,3354,1677
3355,67.05,3355,1678
3356,67.08,3356,1678
3357,67.12,3357,1679
3358,67.15,3358,1679
3359,67.17,3359,1680
3360,67.17,3360,1680
3361,67.18,3361,1681
3362,67.18,3362,1681
3363,67.17,3363,1682
3364,67.40,3364,1682
3365,67.57,3365,1683
3366,67.77,3366,1683
3367,68.00,3367,1684
3368,68.25,3368,1684
3369,68.48,3369,1685
3370,68.72,3370,1685
3371,68.88,3371,1686
3372,69.05,3372,1686
3373,69.15,3373,1687
3374,69.23,3374,1687
3375,69.33,3375,1688
3376,69.43,3376,1688
3377,69.65,3377,1689
3378,69.68,3378,1689
3379,69.65,3379,1690
3380,69.63,3380,1690
3381,69.62,3381,1691
3382,69.62,3382,1691
3383,69.62,3383,1692
3384,69.60,3384,1692
3385,69.58,3385,1693
3386,69.57,3386,1693
3387,69.58,3387,1694
3388,69.60,3388,1694
3389,69.65,3389,1695
3390,69.70,3390,1695
3391,69.82,3391,1696
3392,69.87,3392,1696
3393,69.95,3393,1697
3394,69.98,3394,1697
3395,70.02,3395,1698
3396,70.05,3396,1698
3397,70.07,3397,1699
3398,70.03,3398,1699
3399,70.03,3399,1700
3400,70.00,3400,1700
3401,70.02,3401,1701
3402,70.00,3402,1701
3403,70.00,3403,1702
3404,70.02,3404,1702
3405,70.07,3405,1703
3406,70.15,3406,1703
3407,70.25,3407,1704
3408,70.33,3408,1704
3409,70.42,3409,1705
3410,70.50,3410,1705
3411,70.60,3411,1706
3412,70.72,3412,1706
3413,70.88,3413,1707
3414,71.08,3414,1707
3415,71.28,3415,1708
3416,71.48,3416,1708
3417,71.68,3417,1709
3418,71.85,3418,1709
3419,72.00,3419,1710
3420,72.08,3420,1710
3421,72.15,3421,1711
3422,72.22,3422,1711
3423,72.27,3423,1712
3424,72.10,3424,1712
3425,72.02,3425,1713
3426,71.90,3426,1713
3427,71.78,3427,1714
3428,71.65,3428,1714
3429,71.52,3429,1715
3430,71.38,3430,1715
3431,71.17,3431,1716
3432,70.90,3432,1716
3433,70.70,3433,1717
3434,70.52,3434,1717
3435,70.33,3435,1718
3436,70.15,3436,1718
3437,69.87,3437,1719
3438,69.75,3438,1719
3439,69.92,3439,1720
3440,70.08,3440,1720
3441,70.28,3441,1721
3442,70.47,3442,1721
3443,70.68,3443,1722
3444,70.85,3444,1722
3445,71.05,3445,1723
3446,71.23,3446,1723
3447,71.37,3447,1724
3448,71.48,3448,1724
3449,71.60,3449,1725
3450,71.70,3450,1725
3451,71.75,3451,1726
3452,71.85,3452,1726
3453,71.95,3453,1727
3454,72.07,3454,1727
3455,72.18,3455,1728
3456,72.28,3456,1728
3457,72.42,3457,1729
3458,72.52,3458,1729
3459,72.55,3459,1730
3460,72.65,3460,1730
3461,72.75,3461,1731
3462,72.87,3462,1731
3463,72.97,3463,1732
3464,73.12,3464,1732
3465,73.23,3465,1733
3466,73.27,3466,1733
3467,73.28,3467,1734
3468,73.28,3468,1734
3469,73.28,3469,1735
3470,73.47,3470,1735
3471,73.65,3471,1736
3472,73.80,3472,1736
3473,73.95,3473,1737
3474,73.98,3474,1737
3475,74.03,3475,1738
3476,74.15,3476,1738
3477,74.17,3477,1739
3478,74.22,3478,1739
3479,74.25,3479,1740
3480,74.33,3480,1740
3481,74.33,3481,1741
3482,74.37,3482,1741
3483,74.32,3483,1742
3484,74.28,3484,1742
3485,74.25,3485,1743
3486,74.23,3486,1743
3487,74.33,3487,1744
3488,74.47,3488,1744
3489,74.57,3489,1745
3490,74.63,3490,1745
3491,74.75,3491,1746
3492,74.87,3492,1746
3493,75.07,3493,1747
3494,75.27,3494,1747
3495,75.43,3495,1748
3496,75.58,3496,1748
3497,75.72,3497,1749
3498,75.90,3498,1749
3499,76.23,3499,1750
3500,76.53,3500,1750
3501,76.85,3501,1751
3502,77.07,3502,1751
3503,77.27,3503,1752
3504,77.53,3504,1752
3505,77.78,3505,1753
3506,78.03,3506,1753
3507,78.32,3507,1754
3508,78.58,3508,1754
3509,78.80,3509,1755
3510,79.18,3510,1755
3511,79.57,3511,1756
3512,79.72,3512,1756
3513,79.90,3513,1757
3514,80.07,3514,1757
3515,79.92,3515,1758
3516,79.80,3516,1758
3517,79.67,3517,1759
3518,79.57,3518,1759
3519,79.47,3519,1760
3520,79.48,3520,1760
3521,79.48,3521,1761
3522,79.48,3522,1761
3523,79.50,3523,1762
3524,79.45,3524,1762
3525,79.38,3525,1763
3526,79.37,3526,1763
3527,79.33,3527,1764
3528,79.32,3528,1764
3529,79.30,3529,1765
3530,79.08,3530,1765
3531,78.83,3531,1766
3532,78.62,3532,1766
3533,78.37,3533,1767
3534,78.23,3534,1767
3535,78.07,3535,1768
3536,77.83,3536,1768
3537,77.68,3537,1769
3538,77.50,3538,1769
3539,77.33,3539,1770
3540,77.28,3540,1770
3541,77.30,3541,1771
3542,77.28,3542,1771
3543,77.37,3543,1772
3544,77.58,3544,1772
3545,77.73,3545,1773
3546,78.00,3546,1773
3547,78.15,3547,1774
3548,78.23,3548,1774
3549,78.35,3549,1775
3550,78.48,3550,1775
3551,78.57,3551,1776
3552,78.52,3552,1776
3553,78.43,3553,1777
3554,78.28,3554,1777
3555,78.17,3555,1778
3556,78.07,3556,1778
3557,77.93,3557,1779
3558,77.77,3558,1779
3559,77.30,3559,1780
3560,76.87,3560,1780
3561,76.42,3561,1781
3562,76.10,3562,1781
3563,75.70,3563,1782
3564,75.30,3564,1782
3565,74.90,3565,1783
3566,74.62,3566,1783
3567,74.35,3567,1784
3568,74.12,3568,1784
3569,73.93,3569,1785
3570,73.60,3570,1785
3571,73.28,3571,1786
3572,73.23,3572,1786
3573,73.22,3573,1787
3574,73.18,3574,1787
3575,73.47,3575,1788
3576,73.75,3576,1788
3577,74.05,3577,1789
3578,74.37,3578,1789
3579,74.78,3579,1790
3580,75.08,3580,1790
3581,75.33,3581,1791
3582,75.63,3582,1791
3583,75.98,3583,1792
3584,76.32,3584,1792
3585,76.77,3585,1793
3586,77.25,3586,1793
3587,77.78,3587,1794
3588,78.33,3588,1794
3589,78.93,3589,1795
3590,79.53,3590,1795
3591,80.13,3591,1796
3592,80.77,3592,1796
3593,81.45,3593,1797
3594,82.10,3594,1797
3595,82.80,3595,1798
3596,83.43,3596,1798
3597,84.13,3597,1799
3598,85.07,3598,1799
3599,86.02,3599,1800
3600,86.85,3600,1800
3601,87.68,3601,1801
3602,88.52,3602,1801
3603,89.37,3603,1802
3604,90.05,3604,1802
3605,90.80,3605,1803
3606,91.43,3606,1803
3607,92.10,3607,1804
3608,92.82,3608,1804
3609,92.50,3609,1805
3610,92.18,3610,1805
3611,91.88,3611,1806
3612,91.72,3612,1806
3613,91.50,3613,1807
3614,91.35,3614,1807
3615,91.22,3615,1808
3616,91.10,3616,1808
3617,91.07,3617,1809
3618,91.03,3618,1809
3619,91.00,3619,1810
3620,90.97,3620,1810
3621,90.88,3621,1811
3622,90.80,3622,1811
3623,90.80,3623,1812
3624,90.82,3624,1812
3625,90.85,3625,1813
3626,90.77,3626,1813
3627,90.67,3627,1814
3628,90.55,3628,1814
3629,90.43,3629,1815
3630,90.30,3630,1815
3631,90.18,3631,1816
3632,90.02,3632,1816
3633,89.82,3633,1817
3634,89.65,3634,1817
3635,89.48,3635,1818
3636,89.30,3636,1818
3637,89.10,3637,1819
3638,88.88,3638,1819
3639,88.62,3639,1820
3640,88.30,3640,1820
3641,88.03,3641,1821
3642,87.68,3642,1821
3643,87.28,3643,1822
3644,86.88,3644,1822
3645,86.38,3645,1823
3646,85.85,3646,1823
3647,85.27,3647,1824
3648,84.67,3648,1824
3649,84.02,3649,1825
3650,83.40,3650,1825
3651,82.80,3651,1826
3652,82.17,3652,1826
3653,81.50,3653,1827
3654,80.83,3654,1827
3655,80.13,3655,1828
3656,79.50,3656,1828
3657,78.82,3657,1829
3658,77.90,3658,1829
3659,76.98,3659,1830
3660,76.07,3660,1830
3661,75.13,3661,1831
3662,74.22,3662,1831
3663,73.30,3663,1832
3664,72.42,3664,1832
3665,71.52,3665,1833
3666,70.62,3666,1833
3667,69.67,3667,1834
3668,68.72,3668,1834
3669,68.78,3669,1835
3670,68.85,3670,1835
3671,68.90,3671,1836
3672,68.95,3672,1836
3673,69.02,3673,1837
3674,69.08,3674,1837
3675,69.13,3675,1838
3676,69.18,3676,1838
3677,69.20,3677,1839
3678,69.20,3678,1839
3679,69.17,3679,1840
3680,69.10,3680,1840
3681,69.03,3681,1841
3682,68.97,3682,1841
3683,68.90,3683,1842
3684,68.80,3684,1842
3685,68.67,3685,1843
3686,68.60,3686,1843
3687,68.52,3687,1844
3688,68.47,3688,1844
3689,68.42,3689,1845
3690,68.35,3690,1845
3691,68.58,3691,1846
3692,68.72,3692,1846
3693,68.87,3693,1847
3694,69.02,3694,1847
3695,69.17,3695,1848
3696,69.32,3696,1848
3697,69.47,3697,1849
3698,69.62,3698,1849
3699,69.82,3699,1850
3700,70.02,3700,1850
3701,70.17,3701,1851
3702,70.32,3702,1851
3703,70.45,3703,1852
3704,70.63,3704,1852
3705,70.88,3705,1853
3706,71.02,3706,1853
3707,71.22,3707,1854
3708,71.47,3708,1854
3709,71.72,3709,1855
3710,71.88,3710,1855
3711,72.03,3711,1856
3712,72.17,3712,1856
3713,72.30,3713,1857
3714,72.42,3714,1857
3715,72.45,3715,1858
3716,72.48,3716,1858
3717,72.52,3717,1859
3718,72.60,3718,1859
3719,72.68,3719,1860
3720,72.80,3720,1860
3721,72.93,3721,1861
3722,73.03,3722,1861
3723,73.12,3723,1862
3724,73.13,3724,1862
3725,73.13,3725,1863
3726,73.12,3726,1863
3727,73.10,3727,1864
3728,73.08,3728,1864
3729,72.92,3729,1865
3730,72.73,3730,1865
3731,72.52,3731,1866
3732,72.28,3732,1866
3733,72.03,3733,1867
3734,71.80,3734,1867
3735,71.57,3735,1868
3736,71.35,3736,1868
3737,71.05,3737,1869
3738,70.97,3738,1869
3739,70.88,3739,1870
3740,70.82,3740,1870
3741,70.75,3741,1871
3742,70.80,3742,1871
3743,70.92,3743,1872
3744,71.07,3744,1872
3745,71.23,3745,1873
3746,71.35,3746,1873
3747,71.38,3747,1874
3748,71.42,3748,1874
3749,71.43,3749,1875
3750,71.67,3750,1875
3751,71.58,3751,1876
3752,71.62,3752,1876
3753,71.60,3753,1877
3754,71.48,3754,1877
3755,71.42,3755,1878
3756,71.33,3756,1878
3757,71.12,3757,1879
3758,70.92,3758,1879
3759,70.72,3759,1880
3760,70.52,3760,1880
3761,70.38,3761,1881
3762,70.30,3762,1881
3763,70.25,3763,1882
3764,70.12,3764,1882
3765,69.95,3765,1883
3766,69.85,3766,1883
3767,69.70,3767,1884
3768,69.47,3768,1884
3769,69.12,3769,1885
3770,68.83,3770,1885
3771,68.58,3771,1886
3772,68.35,3772,1886
3773,68.08,3773,1887
3774,67.82,3774,1887
3775,67.62,3775,1888
3776,67.42,3776,1888
3777,67.22,3777,1889
3778,67.00,3778,1889
3779,66.77,3779,1890
3780,66.53,3780,1890
3781,66.30,3781,1891
3782,66.12,3782,1891
3783,65.97,3783,1892
3784,65.88,3784,1892
3785,65.85,3785,1893
3786,65.85,3786,1893
3787,65.88,3787,1894
3788,65.93,3788,1894
3789,66.15,3789,1895
3790,66.38,3790,1895
3791,66.65,3791,1896
3792,66.90,3792,1896
3793,67.25,3793,1897
3794,67.57,3794,1897
3795,67.87,3795,1898
3796,68.13,3796,1898
3797,68.47,3797,1899
3798,68.70,3798,1899
3799,69.13,3799,1900
3800,69.53,3800,1900
3801,69.55,3801,1901
3802,69.45,3802,1901
3803,69.23,3803,1902
3804,69.00,3804,1902
3805,68.73,3805,1903
3806,68.45,3806,1903
3807,68.22,3807,1904
3808,67.95,3808,1904
3809,67.70,3809,1905
3810,67.23,3810,1905
3811,66.80,3811,1906
3812,66.32,3812,1906
3813,65.88,3813,1907
3814,66.12,3814,1907
3815,66.30,3815,1908
3816,66.48,3816,1908
3817,66.72,3817,1909
3818,66.90,3818,1909
3819,67.05,3819,1910
3820,67.20,3820,1910
3821,67.27,3821,1911
3822,67.35,3822,1911
3823,67.45,3823,1912
3824,67.57,3824,1912
3825,67.70,3825,1913
3826,67.92,3826,1913
3827,68.07,3827,1914
3828,68.25,3828,1914
3829,68.53,3829,1915
3830,68.75,3830,1915
3831,68.93,3831,1916
3832,69.12,3832,1916
3833,69.20,3833,1917
3834,69.35,3834,1917
3835,69.53,3835,1918
3836,69.72,3836,1918
3837,69.88,3837,1919
3838,70.03,3838,1919
3839,70.17,3839,1920
3840,70.28,3840,1920
3841,70.52,3841,1921
3842,70.77,3842,1921
3843,70.98,3843,1922
3844,71.37,3844,1922
3845,71.77,3845,1923
3846,72.13,3846,1923
3847,72.48,3847,1924
3848,72.78,3848,1924
3849,73.08,3849,1925
3850,73.37,3850,1925
3851,73.68,3851,1926
3852,74.02,3852,1926
3853,74.20,3853,1927
3854,74.45,3854,1927
3855,74.72,3855,1928
3856,74.98,3856,1928
3857,75.28,3857,1929
3858,75.45,3858,1929
3859,75.47,3859,1930
3860,75.45,3860,1930
3861,75.88,3861,1931
3862,76.28,3862,1931
3863,76.70,3863,1932
3864,77.12,3864,1932
3865,77.63,3865,1933
3866,78.12,3866,1933
3867,78.60,3867,1934
3868,79.13,3868,1934
3869,79.63,3869,1935
3870,80.17,3870,1935
3871,80.70,3871,1936
3872,81.30,3872,1936
3873,81.82,3873,1937
3874,81.73,3874,1937
3875,81.67,3875,1938
3876,81.60,3876,1938
3877,81.55,3877,1939
3878,81.52,3878,1939
3879,81.42,3879,1940
3880,81.32,3880,1940
3881,81.25,3881,1941
3882,81.17,3882,1941
3883,81.05,3883,1942
3884,80.95,3884,1942
3885,80.78,3885,1943
3886,80.60,3886,1943
3887,80.50,3887,1944
3888,80.42,3888,1944
3889,80.30,3889,1945
3890,80.27,3890,1945
3891,80.25,3891,1946
3892,80.22,3892,1946
3893,80.30,3893,1947
3894,80.23,3894,1947
3895,80.17,3895,1948
3896,80.12,3896,1948
3897,80.10,3897,1949
3898,80.03,3898,1949
3899,80.00,3899,1950
3900,79.93,3900,1950
3901,79.92,3901,1951
3902,79.85,3902,1951
3903,79.77,3903,1952
3904,79.47,3904,1952
3905,79.12,3905,1953
3906,78.80,3906,1953
3907,78.48,3907,1954
3908,78.22,3908,1954
3909,77.95,3909,1955
3910,77.68,3910,1955
3911,77.37,3911,1956
3912,77.13,3912,1956
3913,76.95,3913,1957
3914,76.72,3914,1957
3915,76.50,3915,1958
3916,76.30,3916,1958
3917,76.08,3917,1959
3918,75.93,3918,1959
3919,75.75,3919,1960
3920,75.62,3920,1960
3921,75.45,3921,1961
3922,75.30,3922,1961
3923,75.18,3923,1962
3924,75.08,3924,1962
3925,74.90,3925,1963
3926,74.75,3926,1963
3927,74.63,3927,1964
3928,74.45,3928,1964
3929,74.23,3929,1965
3930,73.98,3930,1965
3931,73.72,3931,1966
3932,73.35,3932,1966
3933,73.05,3933,1967
3934,72.77,3934,1967
3935,72.45,3935,1968
3936,72.15,3936,1968
3937,71.90,3937,1969
3938,71.65,3938,1969
3939,71.47,3939,1970
3940,71.38,3940,1970
3941,71.37,3941,1971
3942,71.32,3942,1971
3943,71.27,3943,1972
3944,71.25,3944,1972
3945,71.27,3945,1973
3946,71.35,3946,1973
3947,71.40,3947,1974
3948,71.45,3948,1974
3949,71.53,3949,1975
3950,71.60,3950,1975
3951,71.67,3951,1976
3952,71.75,3952,1976
3953,71.83,3953,1977
3954,72.05,3954,1977
3955,72.18,3955,1978
3956,72.30,3956,1978
3957,72.40,3957,1979
3958,72.57,3958,1979
3959,72.72,3959,1980
3960,72.92,3960,1980
3961,72.97,3961,1981
3962,72.95,3962,1981
3963,72.95,3963,1982
3964,72.97,3964,1982
3965,72.95,3965,1983
3966,72.87,3966,1983
3967,72.78,3967,1984
3968,72.68,3968,1984
3969,72.60,3969,1985
3970,72.55,3970,1985
3971,72.53,3971,1986
3972,72.45,3972,1986
3973,72.42,3973,1987
3974,72.40,3974,1987
3975,72.40,3975,1988
3976,72.43,3976,1988
3977,72.48,3977,1989
3978,72.70,3978,1989
3979,73.00,3979,1990
3980,73.38,3980,1990
3981,73.67,3981,1991
3982,74.00,3982,1991
3983,74.30,3983,1992
3984,74.55,3984,1992
3985,74.80,3985,1993
3986,75.05,3986,1993
3987,75.30,3987,1994
3988,75.55,3988,1994
3989,75.83,3989,1995
3990,75.58,3990,1995
3991,75.33,3991,1996
3992,75.12,3992,1996
3993,74.88,3993,1997
3994,74.63,3994,1997
3995,74.38,3995,1998
3996,74.12,3996,1998
3997,73.85,3997,1999
3998,73.60,3998,1999
3999,73.33,3999,2000
4000,72.98,4000,2000
4001,72.60,4001,2001
4002,72.23,4002,2001
4003,71.88,4003,2002
4004,71.52,4004,2002
4005,71.15,4005,2003
4006,70.72,4006,2003
4007,70.30,4007,2004
4008,69.87,4008,2004
4009,69.43,4009,2005
4010,69.00,4010,2005
4011,68.58,4011,2006
4012,68.13,4012,2006
4013,67.68,4013,2007
4014,67.20,4014,2007
4015,66.77,4015,2008
4016,66.33,4016,2008
4017,65.90,4017,2009
4018,65.47,4018,2009
4019,65.08,4019,2010
4020,64.72,4020,2010
4021,64.32,4021,2011
4022,64.05,4022,2011
4023,63.82,4023,2012
4024,63.55,4024,2012
4025,63.33,4025,2013
4026,63.15,4026,2013
4027,62.95,4027,2014
4028,62.73,4028,2014
4029,62.47,4029,2015
4030,62.20,4030,2015
4031,61.92,4031,2016
4032,61.68,4032,2016
4033,61.40,4033,2017
4034,61.08,4034,2017
4035,60.73,4035,2018
4036,60.38,4036,2018
4037,60.00,4037,2019
4038,59.43,4038,2019
4039,58.78,4039,2020
4040,58.08,4040,2020
4041,57.45,4041,2021
4042,56.77,4042,2021
4043,56.12,4043,2022
4044,55.52,4044,2022
4045,54.90,4045,2023
4046,54.30,4046,2023
4047,53.70,4047,2024
4048,53.13,4048,2024
4049,52.62,4049,2025
4050,52.67,4050,2025
4051,52.72,4051,2026
4052,52.77,4052,2026
4053,53.05,4053,2027
4054,53.28,4054,2027
4055,53.58,4055,2028
4056,53.92,4056,2028
4057,54.25,4057,2029
4058,54.58,4058,2029
4059,54.83,4059,2030
4060,55.08,4060,2030
4061,55.35,4061,2031
4062,55.75,4062,2031
4063,55.92,4063,2032
4064,56.07,4064,2032
4065,56.20,4065,2033
4066,56.30,4066,2033
4067,56.38,4067,2034
4068,56.45,4068,2034
4069,56.52,4069,2035
4070,56.58,4070,2035
4071,56.62,4071,2036
4072,56.70,4072,2036
4073,56.80,4073,2037
4074,56.93,4074,2037
4075,57.10,4075,2038
4076,57.37,4076,2038
4077,57.73,4077,2039
4078,57.97,4078,2039
4079,58.18,4079,2040
4080,58.35,4080,2040
4081,58.43,4081,2041
4082,58.52,4082,2041
4083,58.57,4083,2042
4084,58.67,4084,2042
4085,58.82,4085,2043
4086,59.02,4086,2043
4087,59.32,4087,2044
4088,59.65,4088,2044
4089,60.08,4089,2045
4090,60.55,4090,2045
4091,60.88,4091,2046
4092,61.22,4092,2046
4093,61.57,4093,2047
4094,61.95,4094,2047
4095,62.32,4095,2048
4096,62.75,4096,2048
4097,63.12,4097,2049
4098,63.47,4098,2049
4099,63.82,4099,2050
4100,64.08,4100,2050
4101,64.35,4101,2051
4102,64.62,4102,2051
4103,64.88,4103,2052
4104,65.13,4104,2052
4105,65.37,4105,2053
4106,65.58,4106,2053
4107,65.90,4107,2054
4108,66.25,4108,2054
4109,66.57,4109,2055
4110,66.87,4110,2055
4111,67.27,4111,2056
4112,67.65,4112,2056
4113,67.88,4113,2057
4114,68.18,4114,2057
4115,68.40,4115,2058
4116,68.67,4116,2058
4117,68.95,4117,2059
4118,69.25,4118,2059
4119,69.62,4119,2060
4120,70.03,4120,2060
4121,70.43,4121,2061
4122,70.70,4122,2061
4123,71.17,4123,2062
4124,71.68,4124,2062
4125,72.20,4125,2063
4126,72.73,4126,2063
4127,73.23,4127,2064
4128,73.75,4128,2064
4129,74.30,4129,2065
4130,74.85,4130,2065
4131,75.42,4131,2066
4132,75.85,4132,2066
4133,76.32,4133,2067
4134,76.78,4134,2067
4135,77.23,4135,2068
4136,77.55,4136,2068
4137,77.72,4137,2069
4138,78.07,4138,2069
4139,78.43,4139,2070
4140,78.80,4140,2070
4141,79.27,4141,2071
4142,79.67,4142,2071
4143,80.13,4143,2072
4144,80.63,4144,2072
4145,81.08,4145,2073
4146,81.58,4146,2073
4147,81.98,4147,2074
4148,82.38,4148,2074
4149,82.72,4149,2075
4150,83.03,4150,2075
4151,83.55,4151,2076
4152,84.00,4152,2076
4153,84.43,4153,2077
4154,84.87,4154,2077
4155,85.32,4155,2078
4156,85.68,4156,2078
4157,86.13,4157,2079
4158,86.60,4158,2079
4159,87.07,4159,2080
4160,87.60,4160,2080
4161,88.15,4161,2081
4162,88.70,4162,2081
4163,89.25,4163,2082
4164,89.82,4164,2082
4165,90.40,4165,2083
4166,91.00,4166,2083
4167,91.48,4167,2084
4168,91.95,4168,2084
4169,92.38,4169,2085
4170,92.80,4170,2085
4171,93.12,4171,2086
4172,93.45,4172,2086
4173,93.70,4173,2087
4174,93.98,4174,2087
4175,94.33,4175,2088
4176,94.63,4176,2088
4177,94.92,4177,2089
4178,95.18,4178,2089
4179,95.43,4179,2090
4180,95.70,4180,2090
4181,95.95,4181,2091
4182,96.20,4182,2091
4183,96.47,4183,2092
4184,96.70,4184,2092
4185,96.95,4185,2093
4186,97.20,4186,2093
4187,97.50,4187,2094
4188,97.80,4188,2094
4189,98.08,4189,2095
4190,98.35,4190,2095
4191,98.62,4191,2096
4192,99.00,4192,2096
4193,99.33,4193,2097
4194,99.62,4194,2097
4195,99.92,4195,2098
4196,100.25,4196,2098
4197,100.63,4197,2099
4198,100.97,4198,2099
4199,101.27,4199,2100
4200,101.58,4200,2100
4201,101.90,4201,2101
4202,102.23,4202,2101
4203,102.52,4203,2102
4204,102.77,4204,2102
4205,103.02,4205,2103
4206,103.20,4206,2103
4207,103.40,4207,2104
4208,103.58,4208,2104
4209,103.77,4209,2105
4210,103.92,4210,2105
4211,104.00,4211,2106
4212,104.10,4212,2106
4213,104.20,4213,2107
4214,104.27,4214,2107
4215,104.33,4215,2108
4216,104.38,4216,2108
4217,104.43,4217,2109
4218,104.47,4218,2109
4219,104.50,4219,2110
4220,104.53,4220,2110
4221,104.57,4221,2111
4222,104.60,4222,2111
4223,104.63,4223,2112
4224,104.65,4224,2112
4225,104.68,4225,2113
4226,104.73,4226,2113
4227,104.80,4227,2114
4228,104.83,4228,2114
4229,104.90,4229,2115
4230,105.00,4230,2115
4231,105.10,4231,2116
4232,105.22,4232,2116
4233,105.33,4233,2117
4234,105.42,4234,2117
4235,105.48,4235,2118
4236,105.55,4236,2118
4237,105.60,4237,2119
4238,105.63,4238,2119
4239,105.72,4239,2120
4240,105.72,4240,2120
4241,105.73,4241,2121
4242,105.75,4242,2121
4243,105.77,4243,2122
4244,105.80,4244,2122
4245,105.83,4245,2123
4246,105.87,4246,2123
4247,105.90,4247,2124
4248,105.93,4248,2124
4249,105.97,4249,2125
4250,106.02,4250,2125
4251,106.07,4251,2126
4252,106.12,4252,2126
4253,106.15,4253,2127
4254,106.20,4254,2127
4255,106.23,4255,2128
4256,106.27,4256,2128
4257,106.30,4257,2129
4258,106.30,4258,2129
4259,106.32,4259,2130
4260,106.32,4260,2130
4261,106.32,4261,2131
4262,106.33,4262,2131
4263,106.35,4263,2132
4264,106.37,4264,2132
4265,106.42,4265,2133
4266,106.45,4266,2133
4267,106.48,4267,2134
4268,106.50,4268,2134
4269,106.52,4269,2135
4270,106.52,4270,2135
4271,106.50,4271,2136
4272,106.47,4272,2136
4273,106.47,4273,2137
4274,106.48,4274,2137
4275,106.50,4275,2138
4276,106.52,4276,2138
4277,106.55,4277,2139
4278,106.58,4278,2139
4279,106.58,4279,2140
4280,106.57,4280,2140
4281,106.57,4281,2141
4282,106.57,4282,2141
4283,106.55,4283,2142
4284,106.53,4284,2142
4285,106.50,4285,2143
4286,106.43,4286,2143
4287,106.38,4287,2144
4288,106.33,4288,2144
4289,106.28,4289,2145
4290,106.03,4290,2145
4291,105.77,4291,2146
4292,105.50,4292,2146
4293,105.23,4293,2147
4294,105.02,4294,2147
4295,104.72,4295,2148
4296,104.40,4296,2148
4297,104.08,4297,2149
4298,103.80,4298,2149
4299,103.52,4299,2150
4300,103.27,4300,2150
4301,102.98,4301,2151
4302,102.75,4302,2151
4303,102.52,4303,2152
4304,102.28,4304,2152
4305,102.05,4305,2153
4306,101.85,4306,2153
4307,101.62,4307,2154
4308,101.37,4308,2154
4309,101.17,4309,2155
4310,101.00,4310,2155
4311,100.85,4311,2156
4312,100.72,4312,2156
4313,100.68,4313,2157
4314,100.67,4314,2157
4315,100.65,4315,2158
4316,100.62,4316,2158
4317,100.60,4317,2159
4318,100.60,4318,2159
4319,100.55,4319,2160
4320,100.48,4320,2160
4321,100.45,4321,2161
4322,100.35,4322,2161
4323,100.22,4323,2162
4324,100.08,4324,2162
4325,99.87,4325,2163
4326,99.60,4326,2163
4327,99.35,4327,2164
4328,99.10,4328,2164
4329,98.73,4329,2165
4330,98.40,4330,2165
4331,98.08,4331,2166
4332,97.77,4332,2166
4333,97.47,4333,2167
4334,97.15,4334,2167
4335,96.80,4335,2168
4336,96.43,4336,2168
4337,96.05,4337,2169
4338,95.67,4338,2169
4339,95.32,4339,2170
4340,95.02,4340,2170
4341,94.75,4341,2171
4342,94.50,4342,2171
4343,94.18,4343,2172
4344,93.85,4344,2172
4345,93.55,4345,2173
4346,93.25,4346,2173
4347,92.90,4347,2174
4348,92.45,4348,2174
4349,92.05,4349,2175
4350,91.85,4350,2175
4351,91.67,4351,2176
4352,91.45,4352,2176
4353,91.22,4353,2177
4354,90.92,4354,2177
4355,90.68,4355,2178
4356,90.52,4356,2178
4357,90.38,4357,2179
4358,90.37,4358,2179
4359,90.33,4359,2180
4360,90.28,4360,2180
4361,90.25,4361,2181
4362,90.18,4362,2181
4363,90.12,4363,2182
4364,90.05,4364,2182
4365,89.93,4365,2183
4366,89.80,4366,2183
4367,89.67,4367,2184
4368,89.53,4368,2184
4369,89.33,4369,2185
4370,89.07,4370,2185
4371,88.80,4371,2186
4372,88.63,4372,2186
4373,88.38,4373,2187
4374,88.25,4374,2187
4375,88.23,4375,2188
4376,88.22,4376,2188
4377,88.18,4377,2189
4378,88.17,4378,2189
4379,88.17,4379,2190
4380,88.20,4380,2190
4381,88.20,4381,2191
4382,88.23,4382,2191
4383,88.32,4383,2192
4384,88.42,4384,2192
4385,88.57,4385,2193
4386,88.77,4386,2193
4387,88.95,4387,2194
4388,89.17,4388,2194
4389,89.48,4389,2195
4390,89.75,4390,2195
4391,90.03,4391,2196
4392,90.35,4392,2196
4393,90.63,4393,2197
4394,90.93,4394,2197
4395,91.27,4395,2198
4396,91.62,4396,2198
4397,91.98,4397,2199
4398,92.35,4398,2199
4399,92.72,4399,2200
4400,93.05,4400,2200
4401,93.33,4401,2201
4402,93.60,4402,2201
4403,93.93,4403,2202
4404,94.30,4404,2202
4405,94.65,4405,2203
4406,95.02,4406,2203
4407,95.42,4407,2204
4408,95.95,4408,2204
4409,96.40,4409,2205
4410,96.83,4410,2205
4411,97.22,4411,2206
4412,97.58,4412,2206
4413,97.98,4413,2207
4414,98.38,4414,2207
4415,98.90,4415,2208
4416,99.32,4416,2208
4417,99.77,4417,2209
4418,100.10,4418,2209
4419,100.37,4419,2210
4420,100.70,4420,2210
4421,101.05,4421,2211
4422,101.42,4422,2211
4423,101.83,4423,2212
4424,102.22,4424,2212
4425,102.62,4425,2213
4426,103.00,4426,2213
4427,103.30,4427,2214
4428,103.65,4428,2214
4429,103.98,4429,2215
4430,104.35,4430,2215
4431,104.68,4431,2216
4432,104.83,4432,2216
4433,104.93,4433,2217
4434,104.88,4434,2217
4435,104.58,4435,2218
4436,104.28,4436,2218
4437,104.00,4437,2219
4438,103.72,4438,2219
4439,103.43,4439,2220
4440,103.17,4440,2220
4441,102.92,4441,2221
4442,102.68,4442,2221
4443,102.43,4443,2222
4444,102.17,4444,2222
4445,101.95,4445,2223
4446,101.77,4446,2223
4447,101.57,4447,2224
4448,101.35,4448,2224
4449,101.13,4449,2225
4450,100.95,4450,2225
4451,100.68,4451,2226
4452,100.42,4452,2226
4453,100.13,4453,2227
4454,99.87,4454,2227
4455,99.62,4455,2228
4456,99.38,4456,2228
4457,99.13,4457,2229
4458,98.92,4458,2229
4459,98.70,4459,2230
4460,98.52,4460,2230
4461,98.35,4461,2231
4462,98.23,4462,2231
4463,98.12,4463,2232
4464,98.00,4464,2232
4465,97.95,4465,2233
4466,97.92,4466,2233
4467,97.88,4467,2234
4468,97.87,4468,2234
4469,97.87,4469,2235
4470,97.87,4470,2235
4471,97.92,4471,2236
4472,97.88,4472,2236
4473,97.92,4473,2237
4474,98.00,4474,2237
4475,97.95,4475,2238
4476,97.90,4476,2238
4477,97.77,4477,2239
4478,97.62,4478,2239
4479,97.55,4479,2240
4480,97.40,4480,2240
4481,97.13,4481,2241
4482,96.87,4482,2241
4483,96.55,4483,2242
4484,96.32,4484,2242
4485,96.08,4485,2243
4486,95.82,4486,2243
4487,95.67,4487,2244
4488,95.47,4488,2244
4489,95.28,4489,2245
4490,95.13,4490,2245
4491,95.02,4491,2246
4492,94.83,4492,2246
4493,94.68,4493,2247
4494,94.55,4494,2247
4495,94.68,4495,2248
4496,94.97,4496,2248
4497,95.22,4497,2249
4498,95.55,4498,2249
4499,95.90,4499,2250
4500,96.27,4500,2250
4501,96.65,4501,2251
4502,97.05,4502,2251
4503,97.43,4503,2252
4504,97.80,4504,2252
4505,98.08,4505,2253
4506,98.33,4506,2253
4507,98.65,4507,2254
4508,98.97,4508,2254
4509,99.30,4509,2255
4510,99.63,4510,2255
4511,100.10,4511,2256
4512,100.47,4512,2256
4513,100.85,4513,2257
4514,101.20,4514,2257
4515,101.53,4515,2258
4516,101.85,4516,2258
4517,102.17,4517,2259
4518,102.48,4518,2259
4519,102.75,4519,2260
4520,103.03,4520,2260
4521,103.35,4521,2261
4522,103.58,4522,2261
4523,103.77,4523,2262
4524,103.98,4524,2262
4525,104.07,4525,2263
4526,104.13,4526,2263
4527,104.22,4527,2264
4528,104.27,4528,2264
4529,104.35,4529,2265
4530,104.43,4530,2265
4531,104.52,4531,2266
4532,104.72,4532,2266
4533,104.80,4533,2267
4534,104.88,4534,2267
4535,104.97,4535,2268
4536,105.07,4536,2268
4537,105.12,4537,2269
4538,105.18,4538,2269
4539,105.23,4539,2270
4540,105.30,4540,2270
4541,105.50,4541,2271
4542,105.43,4542,2271
4543,105.33,4543,2272
4544,105.15,4544,2272
4545,105.00,4545,2273
4546,104.80,4546,2273
4547,104.60,4547,2274
4548,104.42,4548,2274
4549,104.20,4549,2275
4550,104.07,4550,2275
4551,103.93,4551,2276
4552,103.93,4552,2276
4553,103.92,4553,2277
4554,103.88,4554,2277
4555,103.67,4555,2278
4556,103.28,4556,2278
4557,102.95,4557,2279
4558,102.53,4558,2279
4559,102.13,4559,2280
4560,101.68,4560,2280
4561,101.22,4561,2281
4562,100.70,4562,2281
4563,100.20,4563,2282
4564,99.72,4564,2282
4565,99.28,4565,2283
4566,98.83,4566,2283
4567,98.30,4567,2284
4568,97.75,4568,2284
4569,97.25,4569,2285
4570,96.73,4570,2285
4571,96.15,4571,2286
4572,95.82,4572,2286
4573,95.50,4573,2287
4574,95.17,4574,2287
4575,94.83,4575,2288
4576,94.52,4576,2288
4577,94.17,4577,2289
4578,93.77,4578,2289
4579,93.42,4579,2290
4580,92.98,4580,2290
4581,92.52,4581,2291
4582,91.95,4582,2291
4583,91.47,4583,2292
4584,91.10,4584,2292
4585,90.78,4585,2293
4586,90.47,4586,2293
4587,90.13,4587,2294
4588,89.75,4588,2294
4589,89.35,4589,2295
4590,88.97,4590,2295
4591,88.62,4591,2296
4592,88.28,4592,2296
4593,87.98,4593,2297
4594,87.65,4594,2297
4595,87.33,4595,2298
4596,87.02,4596,2298
4597,86.80,4597,2299
4598,86.55,4598,2299
4599,86.28,4599,2300
4600,86.05,4600,2300
4601,85.82,4601,2301
4602,85.82,4602,2301
4603,85.83,4603,2302
4604,85.85,4604,2302
4605,85.92,4605,2303
4606,86.05,4606,2303
4607,86.17,4607,2304
4608,86.28,4608,2304
4609,86.40,4609,2305
4610,86.42,4610,2305
4611,86.40,4611,2306
4612,86.28,4612,2306
4613,86.20,4613,2307
4614,86.12,4614,2307
4615,86.07,4615,2308
4616,86.05,4616,2308
4617,86.02,4617,2309
4618,85.97,4618,2309
4619,85.83,4619,2310
4620,85.73,4620,2310
4621,85.62,4621,2311
4622,85.55,4622,2311
4623,85.50,4623,2312
4624,85.48,4624,2312
4625,85.50,4625,2313
4626,85.52,4626,2313
4627,85.53,4627,2314
4628,85.60,4628,2314
4629,85.58,4629,2315
4630,85.53,4630,2315
4631,85.52,4631,2316
4632,85.30,4632,2316
4633,85.02,4633,2317
4634,84.78,4634,2317
4635,84.57,4635,2318
4636,84.35,4636,2318
4637,84.07,4637,2319
4638,83.90,4638,2319
4639,83.73,4639,2320
4640,83.55,4640,2320
4641,83.35,4641,2321
4642,83.35,4642,2321
4643,83.27,4643,2322
4644,83.02,4644,2322
4645,82.78,4645,2323
4646,82.58,4646,2323
4647,82.35,4647,2324
4648,82.18,4648,2324
4649,82.02,4649,2325
4650,81.78,4650,2325
4651,81.50,4651,2326
4652,81.22,4652,2326
4653,80.88,4653,2327
4654,80.53,4654,2327
4655,80.20,4655,2328
4656,79.88,4656,2328
4657,79.57,4657,2329
4658,79.28,4658,2329
4659,79.03,4659,2330
4660,78.75,4660,2330
4661,78.45,4661,2331
4662,78.13,4662,2331
4663,77.83,4663,2332
4664,77.55,4664,2332
4665,77.22,4665,2333
4666,76.92,4666,2333
4667,76.58,4667,2334
4668,76.22,4668,2334
4669,76.02,4669,2335
4670,75.80,4670,2335
4671,75.65,4671,2336
4672,75.57,4672,2336
4673,75.47,4673,2337
4674,75.37,4674,2337
4675,75.28,4675,2338
4676,75.20,4676,2338
4677,75.12,4677,2339
4678,75.15,4678,2339
4679,75.23,4679,2340
4680,75.30,4680,2340
4681,75.35,4681,2341
4682,75.40,4682,2341
4683,75.43,4683,2342
4684,75.43,4684,2342
4685,75.32,4685,2343
4686,75.20,4686,2343
4687,75.12,4687,2344
4688,74.97,4688,2344
4689,74.85,4689,2345
4690,74.67,4690,2345
4691,74.47,4691,2346
4692,74.30,4692,2346
4693,74.18,4693,2347
4694,74.07,4694,2347
4695,73.95,4695,2348
4696,73.83,4696,2348
4697,73.83,4697,2349
4698,73.92,4698,2349
4699,74.02,4699,2350
4700,74.13,4700,2350
4701,74.25,4701,2351
4702,74.30,4702,2351
4703,74.45,4703,2352
4704,74.58,4704,2352
4705,74.72,4705,2353
4706,74.80,4706,2353
4707,74.92,4707,2354
4708,75.03,4708,2354
4709,75.22,4709,2355
4710,75.47,4710,2355
4711,75.72,4711,2356
4712,75.95,4712,2356
4713,76.25,4713,2357
4714,76.53,4714,2357
4715,76.80,4715,2358
4716,77.05,4716,2358
4717,77.25,4717,2359
4718,77.42,4718,2359
4719,77.55,4719,2360
4720,77.77,4720,2360
4721,77.98,4721,2361
4722,78.17,4722,2361
4723,78.35,4723,2362
4724,78.53,4724,2362
4725,78.73,4725,2363
4726,78.92,4726,2363
4727,79.07,4727,2364
4728,79.25,4728,2364
4729,79.32,4729,2365
4730,79.40,4730,2365
4731,79.43,4731,2366
4732,79.52,4732,2366
4733,79.60,4733,2367
4734,79.72,4734,2367
4735,79.85,4735,2368
4736,80.00,4736,2368
4737,80.15,4737,2369
4738,80.20,4738,2369
4739,80.27,4739,2370
4740,80.33,4740,2370
4741,80.43,4741,2371
4742,80.50,4742,2371
4743,80.55,4743,2372
4744,80.63,4744,2372
4745,80.80,4745,2373
4746,80.98,4746,2373
4747,81.17,4747,2374
4748,81.43,4748,2374
4749,81.62,4749,2375
4750,81.88,4750,2375
4751,82.08,4751,2376
4752,82.30,4752,2376
4753,82.52,4753,2377
4754,82.73,4754,2377
4755,82.95,4755,2378
4756,83.15,4756,2378
4757,83.37,4757,2379
4758,83.42,4758,2379
4759,83.47,4759,2380
4760,83.55,4760,2380
4761,83.62,4761,2381
4762,83.67,4762,2381
4763,83.67,4763,2382
4764,83.65,4764,2382
4765,83.57,4765,2383
4766,83.47,4766,2383
4767,83.35,4767,2384
4768,83.22,4768,2384
4769,83.03,4769,2385
4770,82.88,4770,2385
4771,82.77,4771,2386
4772,82.65,4772,2386
4773,82.55,4773,2387
4774,82.50,4774,2387
4775,82.40,4775,2388
4776,82.35,4776,2388
4777,82.40,4777,2389
4778,82.45,4778,2389
4779,82.50,4779,2390
4780,82.48,4780,2390
4781,82.45,4781,2391
4782,82.47,4782,2391
4783,82.45,4783,2392
4784,82.42,4784,2392
4785,82.40,4785,2393
4786,82.38,4786,2393
4787,82.45,4787,2394
4788,82.50,4788,2394
4789,82.55,4789,2395
4790,82.57,4790,2395
4791,82.60,4791,2396
4792,82.65,4792,2396
4793,82.75,4793,2397
4794,82.82,4794,2397
4795,82.95,4795,2398
4796,83.02,4796,2398
4797,83.03,4797,2399
4798,83.08,4798,2399
4799,83.17,4799,2400
4800,83.45,4800,2400
4801,83.68,4801,2401
4802,83.95,4802,2401
4803,84.27,4803,2402
4804,84.48,4804,2402
4805,84.73,4805,2403
4806,85.03,4806,2403
4807,85.32,4807,2404
4808,85.55,4808,2404
4809,85.87,4809,2405
4810,86.25,4810,2405
4811,86.70,4811,2406
4812,87.10,4812,2406
4813,87.42,4813,2407
4814,87.78,4814,2407
4815,88.10,4815,2408
4816,88.35,4816,2408
4817,88.55,4817,2409
4818,88.73,4818,2409
4819,88.83,4819,2410
4820,88.87,4820,2410
4821,88.93,4821,2411
4822,89.02,4822,2411
4823,89.10,4823,2412
4824,89.23,4824,2412
4825,89.43,4825,2413
4826,89.65,4826,2413
4827,89.87,4827,2414
4828,90.12,4828,2414
4829,90.35,4829,2415
4830,90.55,4830,2415
4831,90.68,4831,2416
4832,90.68,4832,2416
4833,90.70,4833,2417
4834,90.70,4834,2417
4835,90.80,4835,2418
4836,90.83,4836,2418
4837,90.78,4837,2419
4838,90.75,4838,2419
4839,90.78,4839,2420
4840,90.75,4840,2420
4841,90.70,4841,2421
4842,90.70,4842,2421
4843,90.78,4843,2422
4844,90.92,4844,2422
4845,90.98,4845,2423
4846,91.05,4846,2423
4847,91.02,4847,2424
4848,91.00,4848,2424
4849,90.90,4849,2425
4850,90.85,4850,2425
4851,90.78,4851,2426
4852,90.68,4852,2426
4853,90.52,4853,2427
4854,90.35,4854,2427
4855,90.10,4855,2428
4856,89.90,4856,2428
4857,89.73,4857,2429
4858,89.65,4858,2429
4859,89.55,4859,2430
4860,89.25,4860,2430
4861,88.98,4861,2431
4862,88.72,4862,2431
4863,88.40,4863,2432
4864,88.12,4864,2432
4865,87.77,4865,2433
4866,87.32,4866,2433
4867,86.90,4867,2434
4868,86.48,4868,2434
4869,86.07,4869,2435
4870,85.62,4870,2435
4871,85.17,4871,2436
4872,84.73,4872,2436
4873,84.43,4873,2437
4874,84.08,4874,2437
4875,83.77,4875,2438
4876,83.50,4876,2438
4877,83.23,4877,2439
4878,82.93,4878,2439
4879,82.77,4879,2440
4880,82.67,4880,2440
4881,82.55,4881,2441
4882,82.47,4882,2441
4883,82.50,4883,2442
4884,82.48,4884,2442
4885,82.47,4885,2443
4886,82.47,4886,2443
4887,82.47,4887,2444
4888,82.43,4888,2444
4889,82.40,4889,2445
4890,82.33,4890,2445
4891,82.33,4891,2446
4892,82.45,4892,2446
4893,82.53,4893,2447
4894,82.63,4894,2447
4895,82.65,4895,2448
4896,82.68,4896,2448
4897,82.72,4897,2449
4898,82.72,4898,2449
4899,82.60,4899,2450
4900,82.53,4900,2450
4901,82.53,4901,2451
4902,82.40,4902,2451
4903,82.22,4903,2452
4904,81.85,4904,2452
4905,81.47,4905,2453
4906,81.08,4906,2453
4907,80.80,4907,2454
4908,80.50,4908,2454
4909,80.23,4909,2455
4910,79.93,4910,2455
4911,79.65,4911,2456
4912,79.37,4912,2456
4913,79.10,4913,2457
4914,78.85,4914,2457
4915,78.58,4915,2458
4916,78.37,4916,2458
4917,78.15,4917,2459
4918,77.82,4918,2459
4919,77.50,4919,2460
4920,77.22,4920,2460
4921,76.98,4921,2461
4922,76.73,4922,2461
4923,76.55,4923,2462
4924,76.42,4924,2462
4925,76.33,4925,2463
4926,76.35,4926,2463
4927,76.35,4927,2464
4928,76.35,4928,2464
4929,76.33,4929,2465
4930,76.28,4930,2465
4931,76.22,4931,2466
4932,76.15,4932,2466
4933,75.98,4933,2467
4934,75.80,4934,2467
4935,75.62,4935,2468
4936,75.45,4936,2468
4937,75.30,4937,2469
4938,75.15,4938,2469
4939,74.92,4939,2470
4940,74.70,4940,2470
4941,74.47,4941,2471
4942,74.20,4942,2471
4943,73.85,4943,2472
4944,73.53,4944,2472
4945,73.23,4945,2473
4946,72.92,4946,2473
4947,72.62,4947,2474
4948,72.30,4948,2474
4949,71.98,4949,2475
4950,71.67,4950,2475
4951,71.37,4951,2476
4952,71.08,4952,2476
4953,70.80,4953,2477
4954,70.50,4954,2477
4955,70.23,4955,2478
4956,69.97,4956,2478
4957,69.70,4957,2479
4958,69.40,4958,2479
4959,69.15,4959,2480
4960,68.88,4960,2480
4961,68.57,4961,2481
4962,68.32,4962,2481
4963,68.07,4963,2482
4964,67.95,4964,2482
4965,67.88,4965,2483
4966,67.82,4966,2483
4967,67.77,4967,2484
4968,67.77,4968,2484
4969,67.82,4969,2485
4970,67.90,4970,2485
4971,67.95,4971,2486
4972,68.03,4972,2486
4973,68.10,4973,2487
4974,68.20,4974,2487
4975,68.27,4975,2488
4976,68.25,4976,2488
4977,68.23,4977,2489
4978,68.25,4978,2489
4979,68.25,4979,2490
4980,68.35,4980,2490
4981,68.38,4981,2491
4982,68.37,4982,2491
4983,68.32,4983,2492
4984,68.23,4984,2492
4985,68.13,4985,2493
4986,67.95,4986,2493
4987,67.77,4987,2494
4988,67.62,4988,2494
4989,67.48,4989,2495
4990,67.40,4990,2495
4991,67.37,4991,2496
4992,67.35,4992,2496
4993,67.38,4993,2497
4994,67.42,4994,2497
4995,67.43,4995,2498
4996,67.43,4996,2498
4997,67.42,4997,2499
4998,67.42,4998,2499
4999,67.40,4999,2500
5000,67.38,5000,2500
5001,67.37,5001,2501
5002,67.33,5002,2501
5003,67.30,5003,2502
5004,67.27,5004,2502
5005,67.20,5005,2503
5006,67.15,5006,2503
5007,67.12,5007,2504
5008,67.10,5008,2504
5009,67.10,5009,2505
5010,67.12,5010,2505
5011,67.08,5011,2506
5012,67.00,5012,2506
5013,66.87,5013,2507
5014,66.73,5014,2507
5015,66.58,5015,2508
5016,66.45,5016,2508
5017,66.32,5017,2509
5018,66.27,5018,2509
5019,66.23,5019,2510
5020,66.23,5020,2510
5021,66.25,5021,2511
5022,66.30,5022,2511
5023,66.37,5023,2512
5024,66.47,5024,2512
5025,66.58,5025,2513
5026,66.77,5026,2513
5027,66.97,5027,2514
5028,67.15,5028,2514
5029,67.35,5029,2515
5030,67.52,5030,2515
5031,67.70,5031,2516
5032,67.87,5032,2516
5033,68.07,5033,2517
5034,68.22,5034,2517
5035,68.42,5035,2518
5036,68.63,5036,2518
5037,68.88,5037,2519
5038,69.13,5038,2519
5039,69.37,5039,2520
5040,69.47,5040,2520
5041,69.60,5041,2521
5042,69.82,5042,2521
5043,70.02,5043,2522
5044,70.32,5044,2522
5045,70.62,5045,2523
5046,70.92,5046,2523
5047,71.20,5047,2524
5048,71.50,5048,2524
5049,71.83,5049,2525
5050,72.15,5050,2525
5051,72.30,5051,2526
5052,72.48,5052,2526
5053,72.68,5053,2527
5054,72.77,5054,2527
5055,72.83,5055,2528
5056,72.90,5056,2528
5057,72.97,5057,2529
5058,73.03,5058,2529
5059,73.13,5059,2530
5060,73.23,5060,2530
5061,73.35,5061,2531
5062,73.37,5062,2531
5063,73.38,5063,2532
5064,73.42,5064,2532
5065,73.47,5065,2533
5066,73.50,5066,2533
5067,73.50,5067,2534
5068,73.47,5068,2534
5069,73.43,5069,2535
5070,73.42,5070,2535
5071,73.42,5071,2536
5072,73.47,5072,2536
5073,73.53,5073,2537
5074,73.58,5074,2537
5075,73.63,5075,2538
5076,73.67,5076,2538
5077,73.70,5077,2539
5078,73.72,5078,2539
5079,73.72,5079,2540
5080,73.72,5080,2540
5081,73.73,5081,2541
5082,73.73,5082,2541
5083,73.72,5083,2542
5084,73.67,5084,2542
5085,73.60,5085,2543
5086,73.45,5086,2543
5087,73.23,5087,2544
5088,73.00,5088,2544
5089,72.75,5089,2545
5090,72.50,5090,2545
5091,72.27,5091,2546
5092,72.05,5092,2546
5093,71.87,5093,2547
5094,71.70,5094,2547
5095,71.53,5095,2548
5096,71.35,5096,2548
5097,71.12,5097,2549
5098,70.83,5098,2549
5099,70.55,5099,2550
5100,70.25,5100,2550
5101,69.93,5101,2551
5102,69.58,5102,2551
5103,69.23,5103,2552
5104,68.80,5104,2552
5105,68.35,5105,2553
5106,67.90,5106,2553
5107,67.43,5107,2554
5108,66.88,5108,2554
5109,66.27,5109,2555
5110,65.70,5110,2555
5111,65.23,5111,2556
5112,64.73,5112,2556
5113,64.20,5113,2557
5114,63.82,5114,2557
5115,63.48,5115,2558
5116,63.22,5116,2558
5117,62.93,5117,2559
5118,62.67,5118,2559
5119,62.38,5119,2560
5120,62.05,5120,2560
5121,61.68,5121,2561
5122,61.37,5122,2561
5123,61.05,5123,2562
5124,60.72,5124,2562
5125,60.38,5125,2563
5126,60.08,5126,2563
5127,59.80,5127,2564
5128,59.55,5128,2564
5129,59.30,5129,2565
5130,59.07,5130,2565
5131,58.85,5131,2566
5132,58.67,5132,2566
5133,58.50,5133,2567
5134,58.35,5134,2567
5135,58.23,5135,2568
5136,58.13,5136,2568
5137,58.03,5137,2569
5138,57.93,5138,2569
5139,57.98,5139,2570
5140,58.00,5140,2570
5141,58.07,5141,2571
5142,58.12,5142,2571
5143,58.17,5143,2572
5144,58.22,5144,2572
5145,58.28,5145,2573
5146,58.37,5146,2573
5147,58.43,5147,2574
5148,58.48,5148,2574
5149,58.53,5149,2575
5150,58.60,5150,2575
5151,58.67,5151,2576
5152,58.85,5152,2576
5153,58.98,5153,2577
5154,59.12,5154,2577
5155,59.23,5155,2578
5156,59.38,5156,2578
5157,59.55,5157,2579
5158,59.73,5158,2579
5159,59.92,5159,2580
5160,60.10,5160,2580
5161,60.28,5161,2581
5162,60.48,5162,2581
5163,60.68,5163,2582
5164,60.88,5164,2582
5165,61.07,5165,2583
5166,61.27,5166,2583
5167,61.50,5167,2584
5168,61.77,5168,2584
5169,62.07,5169,2585
5170,62.33,5170,2585
5171,62.62,5171,2586
5172,62.92,5172,2586
5173,63.23,5173,2587
5174,63.53,5174,2587
5175,63.80,5175,2588
5176,64.02,5176,2588
5177,64.28,5177,2589
5178,64.55,5178,2589
5179,64.85,5179,2590
5180,65.18,5180,2590
5181,65.55,5181,2591
5182,65.98,5182,2591
5183,66.38,5183,2592
5184,66.77,5184,2592
5185,67.10,5185,2593
5186,67.47,5186,2593
5187,67.82,5187,2594
5188,68.15,5188,2594
5189,68.45,5189,2595
5190,68.70,5190,2595
5191,68.92,5191,2596
5192,69.12,5192,2596
5193,69.35,5193,2597
5194,69.62,5194,2597
5195,69.90,5195,2598
5196,70.10,5196,2598
5197,70.32,5197,2599
5198,70.53,5198,2599
5199,70.65,5199,2600
5200,70.78,5200,2600
5201,70.82,5201,2601
5202,70.83,5202,2601
5203,70.88,5203,2602
5204,70.95,5204,2602
5205,71.00,5205,2603
5206,71.03,5206,2603
5207,71.05,5207,2604
5208,71.07,5208,2604
5209,71.08,5209,2605
5210,71.07,5210,2605
5211,71.02,5211,2606
5212,70.78,5212,2606
5213,70.57,5213,2607
5214,70.37,5214,2607
5215,70.18,5215,2608
5216,70.00,5216,2608
5217,69.87,5217,2609
5218,69.73,5218,2609
5219,69.62,5219,2610
5220,69.52,5220,2610
5221,69.45,5221,2611
5222,69.40,5222,2611
5223,69.37,5223,2612
5224,69.37,5224,2612
5225,69.35,5225,2613
5226,69.35,5226,2613
5227,69.35,5227,2614
5228,69.33,5228,2614
5229,69.28,5229,2615
5230,69.22,5230,2615
5231,69.13,5231,2616
5232,69.00,5232,2616
5233,68.88,5233,2617
5234,68.77,5234,2617
5235,68.68,5235,2618
5236,68.60,5236,2618
5237,68.48,5237,2619
5238,68.35,5238,2619
5239,68.18,5239,2620
5240,68.02,5240,2620
5241,67.82,5241,2621
5242,67.58,5242,2621
5243,67.38,5243,2622
5244,67.18,5244,2622
5245,67.05,5245,2623
5246,66.85,5246,2623
5247,66.90,5247,2624
5248,66.95,5248,2624
5249,67.02,5249,2625
5250,67.10,5250,2625
5251,67.20,5251,2626
5252,67.30,5252,2626
5253,67.42,5253,2627
5254,67.48,5254,2627
5255,67.50,5255,2628
5256,67.60,5256,2628
5257,67.70,5257,2629
5258,67.80,5258,2629
5259,67.75,5259,2630
5260,67.72,5260,2630
5261,67.75,5261,2631
5262,67.82,5262,2631
5263,67.88,5263,2632
5264,67.92,5264,2632
5265,67.95,5265,2633
5266,68.02,5266,2633
5267,68.15,5267,2634
5268,68.20,5268,2634
5269,68.23,5269,2635
5270,68.27,5270,2635
5271,68.28,5271,2636
5272,68.30,5272,2636
5273,68.23,5273,2637
5274,68.47,5274,2637
5275,68.72,5275,2638
5276,69.00,5276,2638
5277,69.27,5277,2639
5278,69.48,5278,2639
5279,69.70,5279,2640
5280,69.97,5280,2640
5281,70.15,5281,2641
5282,70.30,5282,2641
5283,70.42,5283,2642
5284,70.47,5284,2642
5285,70.52,5285,2643
5286,70.55,5286,2643
5287,70.55,5287,2644
5288,70.45,5288,2644
5289,70.40,5289,2645
5290,70.33,5290,2645
5291,70.27,5291,2646
5292,70.22,5292,2646
5293,70.13,5293,2647
5294,70.02,5294,2647
5295,69.90,5295,2648
5296,69.80,5296,2648
5297,69.72,5297,2649
5298,69.65,5298,2649
5299,69.58,5299,2650
5300,69.50,5300,2650
5301,69.45,5301,2651
5302,69.43,5302,2651
5303,69.35,5303,2652
5304,69.30,5304,2652
5305,69.23,5305,2653
5306,69.18,5306,2653
5307,68.93,5307,2654
5308,68.70,5308,2654
5309,68.40,5309,2655
5310,68.07,5310,2655
5311,67.75,5311,2656
5312,67.42,5312,2656
5313,67.02,5313,2657
5314,66.88,5314,2657
5315,66.78,5315,2658
5316,66.68,5316,2658
5317,66.60,5317,2659
5318,66.52,5318,2659
5319,66.58,5319,2660
5320,66.60,5320,2660
5321,66.58,5321,2661
5322,66.55,5322,2661
5323,66.48,5323,2662
5324,66.45,5324,2662
5325,66.40,5325,2663
5326,66.33,5326,2663
5327,66.28,5327,2664
5328,66.35,5328,2664
5329,66.43,5329,2665
5330,66.55,5330,2665
5331,66.70,5331,2666
5332,66.87,5332,2666
5333,67.10,5333,2667
5334,66.98,5334,2667
5335,66.85,5335,2668
5336,66.68,5336,2668
5337,66.48,5337,2669
5338,66.35,5338,2669
5339,66.22,5339,2670
5340,66.07,5340,2670
5341,65.98,5341,2671
5342,65.93,5342,2671
5343,65.90,5343,2672
5344,65.90,5344,2672
5345,65.93,5345,2673
5346,65.97,5346,2673
5347,65.97,5347,2674
5348,66.08,5348,2674
5349,66.17,5349,2675
5350,66.27,5350,2675
5351,66.35,5351,2676
5352,66.47,5352,2676
5353,66.62,5353,2677
5354,66.80,5354,2677
5355,66.95,5355,2678
5356,67.07,5356,2678
5357,67.15,5357,2679
5358,67.23,5358,2679
5359,67.35,5359,2680
5360,67.50,5360,2680
5361,67.52,5361,2681
5362,67.50,5362,2681
5363,67.53,5363,2682
5364,67.57,5364,2682
5365,67.60,5365,2683
5366,67.63,5366,2683
5367,67.72,5367,2684
5368,67.77,5368,2684
5369,67.83,5369,2685
5370,67.95,5370,2685
5371,68.07,5371,2686
5372,68.23,5372,2686
5373,68.43,5373,2687
5374,68.40,5374,2687
5375,68.38,5375,2688
5376,68.35,5376,2688
5377,68.35,5377,2689
5378,68.37,5378,2689
5379,68.30,5379,2690
5380,68.25,5380,2690
5381,68.18,5381,2691
5382,68.12,5382,2691
5383,68.05,5383,2692
5384,67.95,5384,2692
5385,67.85,5385,2693
5386,67.77,5386,2693
5387,67.53,5387,2694
5388,67.23,5388,2694
5389,66.93,5389,2695
5390,66.63,5390,2695
5391,66.37,5391,2696
5392,66.20,5392,2696
5393,66.03,5393,2697
5394,66.00,5394,2697
5395,65.95,5395,2698
5396,66.07,5396,2698
5397,66.18,5397,2699
5398,66.28,5398,2699
5399,66.37,5399,2700
5400,66.38,5400,2700
5401,66.40,5401,2701
5402,66.38,5402,2701
5403,66.38,5403,2702
5404,66.38,5404,2702
5405,66.35,5405,2703
5406,66.33,5406,2703
5407,66.42,5407,2704
5408,66.52,5408,2704
5409,66.63,5409,2705
5410,66.75,5410,2705
5411,66.92,5411,2706
5412,67.08,5412,2706
5413,67.20,5413,2707
5414,67.28,5414,2707
5415,67.37,5415,2708
5416,67.47,5416,2708
5417,67.60,5417,2709
5418,67.72,5418,2709
5419,67.83,5419,2710
5420,67.93,5420,2710
5421,68.17,5421,2711
5422,68.43,5422,2711
5423,68.72,5423,2712
5424,69.03,5424,2712
5425,69.30,5425,2713
5426,69.57,5426,2713
5427,69.72,5427,2714
5428,69.92,5428,2714
5429,70.15,5429,2715
5430,70.37,5430,2715
5431,70.53,5431,2716
5432,70.65,5432,2716
5433,70.78,5433,2717
5434,70.92,5434,2717
5435,71.02,5435,2718
5436,71.13,5436,2718
5437,71.20,5437,2719
5438,71.27,5438,2719
5439,71.38,5439,2720
5440,71.52,5440,2720
5441,71.65,5441,2721
5442,71.80,5442,2721
5443,71.95,5443,2722
5444,72.13,5444,2722
5445,72.42,5445,2723
5446,72.58,5446,2723
5447,72.87,5447,2724
5448,73.20,5448,2724
5449,73.52,5449,2725
5450,73.82,5450,2725
5451,74.05,5451,2726
5452,74.13,5452,2726
5453,74.22,5453,2727
5454,74.17,5454,2727
5455,74.13,5455,2728
5456,73.92,5456,2728
5457,73.67,5457,2729
5458,73.42,5458,2729
5459,73.17,5459,2730
5460,72.95,5460,2730
5461,72.70,5461,2731
5462,72.45,5462,2731
5463,72.20,5463,2732
5464,71.95,5464,2732
5465,71.73,5465,2733
5466,71.53,5466,2733
5467,71.33,5467,2734
5468,71.12,5468,2734
5469,70.85,5469,2735
5470,70.60,5470,2735
5471,70.33,5471,2736
5472,70.18,5472,2736
5473,70.05,5473,2737
5474,69.93,5474,2737
5475,69.85,5475,2738
5476,69.78,5476,2738
5477,69.73,5477,2739
5478,69.70,5478,2739
5479,69.65,5479,2740
5480,69.60,5480,2740
5481,69.55,5481,2741
5482,69.48,5482,2741
5483,69.35,5483,2742
5484,69.15,5484,2742
5485,69.00,5485,2743
5486,68.88,5486,2743
5487,68.82,5487,2744
5488,68.73,5488,2744
5489,68.68,5489,2745
5490,68.68,5490,2745
5491,68.67,5491,2746
5492,68.63,5492,2746
5493,68.53,5493,2747
5494,68.42,5494,2747
5495,68.28,5495,2748
5496,68.15,5496,2748
5497,68.05,5497,2749
5498,67.97,5498,2749
5499,67.88,5499,2750
5500,67.80,5500,2750
5501,67.77,5501,2751
5502,67.73,5502,2751
5503,67.70,5503,2752
5504,67.67,5504,2752
5505,67.52,5505,2753
5506,67.47,5506,2753
5507,67.43,5507,2754
5508,67.38,5508,2754
5509,67.35,5509,2755
5510,67.32,5510,2755
5511,67.37,5511,2756
5512,67.50,5512,2756
5513,67.63,5513,2757
5514,67.83,5514,2757
5515,68.02,5515,2758
5516,68.23,5516,2758
5517,68.48,5517,2759
5518,68.72,5518,2759
5519,68.93,5519,2760
5520,69.15,5520,2760
5521,69.38,5521,2761
5522,69.57,5522,2761
5523,69.62,5523,2762
5524,69.65,5524,2762
5525,69.55,5525,2763
5526,69.45,5526,2763
5527,69.62,5527,2764
5528,69.93,5528,2764
5529,70.30,5529,2765
5530,70.63,5530,2765
5531,70.95,5531,2766
5532,71.12,5532,2766
5533,71.27,5533,2767
5534,71.35,5534,2767
5535,71.43,5535,2768
5536,71.55,5536,2768
5537,71.60,5537,2769
5538,71.65,5538,2769
5539,71.73,5539,2770
5540,71.82,5540,2770
5541,71.85,5541,2771
5542,71.98,5542,2771
5543,72.13,5543,2772
5544,72.28,5544,2772
5545,72.43,5545,2773
5546,72.53,5546,2773
5547,72.58,5547,2774
5548,72.87,5548,2774
5549,73.12,5549,2775
5550,73.32,5550,2775
5551,73.53,5551,2776
5552,73.77,5552,2776
5553,74.05,5553,2777
5554,74.30,5554,2777
5555,74.53,5555,2778
5556,74.75,5556,2778
5557,74.98,5557,2779
5558,75.23,5558,2779
5559,75.48,5559,2780
5560,75.77,5560,2780
5561,76.03,5561,2781
5562,76.22,5562,2781
5563,76.37,5563,2782
5564,76.52,5564,2782
5565,76.70,5565,2783
5566,76.98,5566,2783
5567,77.27,5567,2784
5568,77.53,5568,2784
5569,77.62,5569,2785
5570,77.75,5570,2785
5571,77.83,5571,2786
5572,77.92,5572,2786
5573,78.03,5573,2787
5574,78.12,5574,2787
5575,78.23,5575,2788
5576,78.38,5576,2788
5577,78.58,5577,2789
5578,78.80,5578,2789
5579,79.00,5579,2790
5580,79.17,5580,2790
5581,79.38,5581,2791
5582,79.65,5582,2791
5583,80.02,5583,2792
5584,80.35,5584,2792
5585,80.83,5585,2793
5586,81.25,5586,2793
5587,81.27,5587,2794
5588,81.15,5588,2794
5589,81.03,5589,2795
5590,80.93,5590,2795
5591,80.85,5591,2796
5592,80.77,5592,2796
5593,80.67,5593,2797
5594,80.65,5594,2797
5595,80.62,5595,2798
5596,80.53,5596,2798
5597,80.53,5597,2799
5598,80.53,5598,2799
5599,80.50,5599,2800
5600,80.50,5600,2800
5601,80.50,5601,2801
5602,80.42,5602,2801
5603,80.23,5603,2802
5604,80.08,5604,2802
5605,79.93,5605,2803
5606,79.85,5606,2803
5607,79.78,5607,2804
5608,79.48,5608,2804
5609,79.25,5609,2805
5610,79.00,5610,2805
5611,78.82,5611,2806
5612,78.62,5612,2806
5613,78.40,5613,2807
5614,78.22,5614,2807
5615,78.05,5615,2808
5616,77.93,5616,2808
5617,77.77,5617,2809
5618,77.52,5618,2809
5619,77.28,5619,2810
5620,76.98,5620,2810
5621,76.67,5621,2811
5622,76.40,5622,2811
5623,76.15,5623,2812
5624,76.28,5624,2812
5625,76.42,5625,2813
5626,76.43,5626,2813
5627,76.43,5627,2814
5628,76.48,5628,2814
5629,76.67,5629,2815
5630,76.78,5630,2815
5631,76.83,5631,2816
5632,76.90,5632,2816
5633,76.97,5633,2817
5634,77.00,5634,2817
5635,77.07,5635,2818
5636,77.08,5636,2818
5637,77.00,5637,2819
5638,76.87,5638,2819
5639,76.83,5639,2820
5640,76.48,5640,2820
5641,76.10,5641,2821
5642,75.72,5642,2821
5643,75.37,5643,2822
5644,75.07,5644,2822
5645,74.72,5645,2823
5646,74.38,5646,2823
5647,74.17,5647,2824
5648,73.93,5648,2824
5649,73.68,5649,2825
5650,73.43,5650,2825
5651,73.18,5651,2826
5652,72.92,5652,2826
5653,72.68,5653,2827
5654,72.47,5654,2827
5655,72.22,5655,2828
5656,71.97,5656,2828
5657,71.73,5657,2829
5658,71.50,5658,2829
5659,71.28,5659,2830
5660,71.12,5660,2830
5661,71.00,5661,2831
5662,70.92,5662,2831
5663,70.88,5663,2832
5664,71.02,5664,2832
5665,71.15,5665,2833
5666,71.25,5666,2833
5667,71.38,5667,2834
5668,71.50,5668,2834
5669,71.55,5669,2835
5670,71.62,5670,2835
5671,71.63,5671,2836
5672,71.65,5672,2836
5673,71.63,5673,2837
5674,71.60,5674,2837
5675,71.58,5675,2838
5676,71.53,5676,2838
5677,71.50,5677,2839
5678,71.50,5678,2839
5679,71.48,5679,2840
5680,71.52,5680,2840
5681,71.57,5681,2841
5682,71.67,5682,2841
5683,71.78,5683,2842
5684,71.50,5684,2842
5685,71.18,5685,2843
5686,70.88,5686,2843
5687,70.60,5687,2844
5688,70.30,5688,2844
5689,70.07,5689,2845
5690,69.88,5690,2845
5691,69.78,5691,2846
5692,69.67,5692,2846
5693,69.52,5693,2847
5694,69.42,5694,2847
5695,69.28,5695,2848
5696,69.15,5696,2848
5697,69.07,5697,2849
5698,69.05,5698,2849
5699,68.98,5699,2850
5700,69.28,5700,2850
5701,69.58,5701,2851
5702,69.88,5702,2851
5703,70.17,5703,2852
5704,70.45,5704,2852
5705,70.77,5705,2853
5706,71.10,5706,2853
5707,71.40,5707,2854
5708,71.68,5708,2854
5709,71.98,5709,2855
5710,72.30,5710,2855
5711,72.62,5711,2856
5712,72.97,5712,2856
5713,73.30,5713,2857
5714,73.68,5714,2857
5715,74.08,5715,2858
5716,74.50,5716,2858
5717,74.90,5717,2859
5718,75.30,5718,2859
5719,75.68,5719,2860
5720,75.98,5720,2860
5721,76.30,5721,2861
5722,76.53,5722,2861
5723,76.88,5723,2862
5724,76.97,5724,2862
5725,77.05,5725,2863
5726,77.10,5726,2863
5727,77.10,5727,2864
5728,77.12,5728,2864
5729,77.13,5729,2865
5730,77.13,5730,2865
5731,77.10,5731,2866
5732,77.08,5732,2866
5733,77.10,5733,2867
5734,77.18,5734,2867
5735,77.27,5735,2868
5736,77.38,5736,2868
5737,77.50,5737,2869
5738,77.63,5738,2869
5739,77.88,5739,2870
5740,78.08,5740,2870
5741,78.28,5741,2871
5742,78.47,5742,2871
5743,78.63,5743,2872
5744,78.82,5744,2872
5745,79.02,5745,2873
5746,79.22,5746,2873
5747,79.43,5747,2874
5748,79.57,5748,2874
5749,79.68,5749,2875
5750,79.75,5750,2875
5751,79.82,5751,2876
5752,79.87,5752,2876
5753,79.93,5753,2877
5754,79.97,5754,2877
5755,79.93,5755,2878
5756,79.90,5756,2878
5757,79.82,5757,2879
5758,79.73,5758,2879
5759,79.62,5759,2880
5760,79.42,5760,2880
5761,79.20,5761,2881
5762,78.97,5762,2881
5763,78.73,5763,2882
5764,78.50,5764,2882
5765,78.30,5765,2883
5766,78.12,5766,2883
5767,77.98,5767,2884
5768,77.90,5768,2884
5769,77.83,5769,2885
5770,77.75,5770,2885
5771,77.67,5771,2886
5772,77.58,5772,2886
5773,77.47,5773,2887
5774,77.23,5774,2887
5775,77.05,5775,2888
5776,76.85,5776,2888
5777,76.62,5777,2889
5778,76.40,5778,2889
5779,76.32,5779,2890
5780,76.18,5780,2890
5781,76.05,5781,2891
5782,75.98,5782,2891
5783,75.87,5783,2892
5784,75.82,5784,2892
5785,75.82,5785,2893
5786,75.87,5786,2893
5787,75.90,5787,2894
5788,75.95,5788,2894
5789,76.02,5789,2895
5790,76.07,5790,2895
5791,76.17,5791,2896
5792,76.25,5792,2896
5793,76.35,5793,2897
5794,76.30,5794,2897
5795,76.25,5795,2898
5796,76.15,5796,2898
5797,75.97,5797,2899
5798,75.73,5798,2899
5799,75.38,5799,2900
5800,75.05,5800,2900
5801,74.70,5801,2901
5802,74.37,5802,2901
5803,74.05,5803,2902
5804,73.73,5804,2902
5805,73.43,5805,2903
5806,73.12,5806,2903
5807,72.80,5807,2904
5808,72.62,5808,2904
5809,72.45,5809,2905
5810,72.30,5810,2905
5811,72.15,5811,2906
5812,72.00,5812,2906
5813,71.83,5813,2907
5814,71.68,5814,2907
5815,71.57,5815,2908
5816,71.47,5816,2908
5817,71.42,5817,2909
5818,71.35,5818,2909
5819,71.33,5819,2910
5820,71.43,5820,2910
5821,71.57,5821,2911
5822,71.72,5822,2911
5823,71.87,5823,2912
5824,72.03,5824,2912
5825,72.18,5825,2913
5826,72.38,5826,2913
5827,72.58,5827,2914
5828,72.78,5828,2914
5829,72.93,5829,2915
5830,73.10,5830,2915
5831,73.27,5831,2916
5832,73.43,5832,2916
5833,73.68,5833,2917
5834,73.93,5834,2917
5835,74.17,5835,2918
5836,74.52,5836,2918
5837,74.87,5837,2919
5838,75.17,5838,2919
5839,75.40,5839,2920
5840,75.68,5840,2920
5841,75.80,5841,2921
5842,75.88,5842,2921
5843,75.90,5843,2922
5844,75.93,5844,2922
5845,75.83,5845,2923
5846,75.72,5846,2923
5847,75.65,5847,2924
5848,75.57,5848,2924
5849,75.45,5849,2925
5850,75.35,5850,2925
5851,75.22,5851,2926
5852,75.08,5852,2926
5853,74.93,5853,2927
5854,74.88,5854,2927
5855,74.83,5855,2928
5856,74.80,5856,2928
5857,74.85,5857,2929
5858,74.95,5858,2929
5859,75.07,5859,2930
5860,75.20,5860,2930
5861,75.32,5861,2931
5862,75.43,5862,2931
5863,75.57,5863,2932
5864,75.72,5864,2932
5865,75.85,5865,2933
5866,75.98,5866,2933
5867,76.13,5867,2934
5868,76.23,5868,2934
5869,76.28,5869,2935
5870,76.27,5870,2935
5871,76.23,5871,2936
5872,76.18,5872,2936
5873,76.17,5873,2937
5874,76.13,5874,2937
5875,76.10,5875,2938
5876,76.05,5876,2938
5877,76.00,5877,2939
5878,75.97,5878,2939
5879,75.90,5879,2940
5880,75.82,5880,2940
5881,75.68,5881,2941
5882,75.55,5882,2941
5883,75.40,5883,2942
5884,75.25,5884,2942
5885,75.07,5885,2943
5886,74.85,5886,2943
5887,74.55,5887,2944
5888,74.20,5888,2944
5889,73.90,5889,2945
5890,73.57,5890,2945
5891,73.22,5891,2946
5892,72.87,5892,2946
5893,72.45,5893,2947
5894,72.12,5894,2947
5895,71.78,5895,2948
