ts_seq_num,label
1,49.611369076105795
2,50.323992482870175
3,52.70833578028965
4,55.640794089318696
5,57.658405742475935
6,58.911550418901015
7,57.976458887930505
8,58.67629239900475
9,62.350799516113625
10,69.11397505219429
11,71.14606708348971
12,71.40772878821176
13,70.49986647735687
14,68.28677945713945
15,65.31854379005686
16,60.88884576696878
17,56.225792587287835
18,53.43837677997072
19,56.82707575623429
20,59.90854652585767
21,58.247802019693474
22,57.15136267460476
23,55.36174198660649
24,56.88549356441574
25,57.76403349450734
26,53.849016635761025
27,53.30527882380494
28,52.856112576963234
29,55.25163922271561
30,60.75474976905043
31,63.03032264260167
32,65.2235674907441
33,66.63421351412907
34,65.9611302695449
35,67.21366044392252
36,64.69141961039189
37,61.8082892483098
38,60.15121501913627
39,58.518966393063636
40,55.75903161595738
41,50.811486944278634
42,51.23618039581562
43,49.82026585940928
44,49.66261887452833
45,45.99346454848262
46,45.34045716916943
47,46.448663302375586
48,46.65837697608915
49,47.58490016808838
50,47.45990694386903
51,45.83209344829442
52,44.43360005226664
53,44.72474073235308
54,49.826746051915215
55,48.75972989837639
56,50.448513353373144
57,47.43810660375889
58,44.032421387883275
59,43.95996043269261
60,43.32077149581441
61,43.609350821755925
62,42.784066229167216
63,42.88472456244288
64,44.14307621420346
65,41.86246685820639
66,42.56746952867105
67,42.63498300725481
68,42.46085093612698
69,44.051303802908166
70,43.15528263947172
71,44.271898845720315
72,42.872620560847515
73,42.837634992394506
74,42.63338536845889
75,42.68543820208502
76,43.68413585331545
77,43.605175456758786
78,44.98070087241998
79,45.118748484759756
80,46.94715133603107
81,45.93831659734444
82,45.92394133448927
83,44.40151170578686
84,45.501213139733444
85,44.68455327856562
86,48.34319514409299
87,49.01568409911899
88,50.25315899785639
89,48.07838424430155
90,46.67796594116264
91,46.83306047167706
92,53.669173879993075
93,55.54276771498244
94,58.029497789691106
95,56.708287934265265
96,54.27049633276503
97,56.15850151077732
98,57.48346505844709
99,58.362820330965086
100,59.173729364021504
101,61.090595917598456
102,59.559974647958995
103,59.91748290379082
104,60.33221255801436
105,59.92845460494134
106,60.55417007082941
107,56.86006769852995
108,54.6648601860769
109,48.30298562751801
110,46.7788893252479
111,44.594115907302786
112,46.03377757232799
113,45.63210637520032
114,45.28754792616911
115,44.04669502169298
116,43.687959819520074
117,44.76961616929259
118,43.805319296511605
119,45.798005511428826
120,44.288520046709294
121,45.0371034546789
122,44.21265799240055
123,44.9317400632964
124,44.62679318508796
125,45.442388221967
126,45.48082243940173
127,45.735221362015025
128,45.26313597613653
129,46.27004674207286
130,45.93660920951059
131,46.03664849148745
132,45.848615203801785
133,45.727694134953325
134,46.020968227264824
135,45.44446586208703
136,45.26024523595622
137,44.18811528968318
138,44.148930336705135
139,47.73065310167836
140,50.30385295250189
141,51.3598811627259
142,49.73800518211525
143,47.32890389679942
144,44.968921026136435
145,45.72277020021165
146,45.36724993874314
147,45.531133567594935
148,44.72634419834963
149,45.110958723913555
150,44.67344310421552
151,46.62164180785868
152,46.222286784247686
153,47.62586349422586
154,46.72896698000443
155,48.80833724782648
156,47.79151253561761
157,47.344479818655216
158,45.57347023038675
159,46.19736284399754
160,45.37456807042352
161,45.87332090622474
162,46.03438773106073
163,44.44829146224214
164,44.7770363295701
165,43.635577265273085
166,43.64370678005719
167,45.26632825294111
168,44.45951417112927
169,45.18310804999267
170,46.5883368081626
171,46.75938193816495
172,48.52848198115594
173,48.97799346487331
174,47.40307820920995
175,48.662493289820496
176,47.806599600066974
177,49.38590631119666
178,50.88109874079125
179,49.24127243093932
180,50.25795434228513
181,51.76958800220057
182,54.33587967139761
183,54.70599610982305
184,53.93422514911986
185,48.70262434759074
186,47.65882000546528
187,48.81921869142309
188,50.47210544769638
189,50.391689278788824
190,49.227369119029674
191,47.63345324971369
192,46.44579455727799
193,46.27810509622257
194,45.42591836317443
195,46.1628241298874
196,46.02673842332537
197,47.92035178190688
198,47.25218666018373
199,47.8292098459954
200,46.798859446936646
201,46.881836449247494
202,46.391057940209635
203,46.66050018132711
204,46.36718833604105
205,46.05604419225715
206,46.0954842838145
207,48.15651565032834
208,48.31404309851292
209,49.60433941719974
210,48.80829804614766
211,51.86883611877057
212,55.84117957753
213,57.44964381756397
214,59.24179092647935
215,59.15828552067874
216,57.037277780063505
217,56.47084708253957
218,55.06887168049237
219,53.48714121730594
220,53.628459005682565
221,52.61013530431325
222,51.765870514409954
223,51.98705622535201
224,50.97744170795873
225,50.935336760474705
226,50.558204502634105
227,50.3213545328613
228,51.071490248204526
229,50.10559065749717
230,52.32805629154501
231,57.29084918312686
232,59.978546952841334
233,59.82646078393665
234,54.789468982238965
235,48.789845766463465
236,47.04946716208503
237,47.55802035674261
238,48.48279093253552
239,48.38915225569074
240,49.60365887696909
241,48.753131093089294
242,48.905820211796886
243,49.827014364693305
244,49.20919499681436
245,48.1801634355505
246,50.7573865600948
247,50.38583064385169
248,52.04141660574769
249,50.9428417228743
250,51.31448163021798
251,48.67289188731025
252,48.53793764950338
253,48.23849381966947
254,47.83038968561109
255,49.54993722349328
256,48.81767170404863
257,49.40128451393881
258,48.01428737055365
259,48.418725467178625
260,50.132254977129044
261,53.78714553741178
262,55.28819405307444
263,55.947728466771764
264,53.32358818746209
265,52.77158937826596
266,51.25817195474758
267,53.10979582700195
268,52.20060768424955
269,51.527760141938565
270,50.77430735151423
271,48.940572725810966
272,50.434941104740844
273,49.665624112730676
274,50.62566823087923
275,48.878623958658544
276,49.62815072504862
277,48.19210967528825
278,48.61207548450722
279,49.23030874516258
280,51.72848569644677
281,51.70298645778118
282,51.675636008769175
283,50.07047661557855
284,48.39558482246703
285,49.09369396349562
286,47.625764275061
287,47.87119023289093
288,49.15349651799986
289,49.42259878724629
290,50.31563634456695
291,49.18276242019256
292,48.168167170294986
293,47.748164477489375
294,49.37688632139837
295,50.404727597678225
296,50.134053429094706
297,48.77794459953598
298,49.57370804938913
299,50.443846860338
300,50.715808595326806
301,50.83844054941716
302,47.01258530751969
303,47.58747449317552
304,47.30629043755309
305,47.82785060956695
306,48.38865606970825
307,48.21593993898932
308,45.82629981104088
309,45.61370730133036
310,45.81155748381576
311,47.516377267105185
312,48.932685917707204
313,49.66203771061731
314,49.54635068484083
315,48.89028023623977
316,49.612691453304734
317,50.00990903516447
318,54.89311282362936
319,59.06911875554001
320,59.061977027743815
321,60.48587469652244
322,56.74608438990225
323,57.0962410330636
324,56.95241602934977
325,57.08250902315838
326,57.772469440774636
327,57.955926113758885
328,59.6076778707738
329,60.06838749360352
330,59.86476751994659
331,59.889275486968025
332,59.46618610649453
333,57.98493535354487
334,56.72539688008806
335,51.13942477263324
336,50.51861384928475
337,48.73370289974988
338,47.87398551153152
339,46.37143478991891
340,46.89639543922737
341,46.47451480033467
342,46.74372051676393
343,45.99145807332502
344,46.50978415935258
345,52.05422476129462
346,52.85663781500459
347,52.588664225707525
348,50.80269773489749
349,50.422462811350016
350,49.08882208948153
351,55.648611862451496
352,63.74813619306572
353,69.19314211993712
354,75.31680714957092
355,78.02355049626343
356,79.76838772385064
357,78.6376876225657
358,74.53733501667135
359,67.78322555645948
360,64.97672048668277
361,61.374339011562256
362,61.730848336019555
363,61.95782916450165
364,56.569313764757894
365,55.263378064115294
366,54.58353757859188
367,56.960778973188376
368,59.90210921640909
369,58.63653932725264
370,58.13499044454058
371,56.28451422307884
372,54.53028575117972
373,52.478709984853445
374,56.54775740509189
375,61.662115385246075
376,65.57315783591937
377,68.99880008391645
378,68.12872209159244
379,67.04551959218446
380,66.09167737952313
381,66.33389470706311
382,68.57134467771884
383,69.7878446962828
384,71.4079106450673
385,73.1397901861312
386,75.25628541890217
387,76.3409484856037
388,75.52654482748204
389,74.69057868225485
390,74.13363240775642
391,75.75900123032513
392,78.63212919407498
393,80.91000000543656
394,82.5092238492507
395,80.08358874923559
396,78.16982731467547
397,75.62315715607201
398,75.78496472094258
399,77.47846901602283
400,79.39368610465348
401,79.33625874781875
402,78.71066425908194
403,78.41837057636806
404,78.48639095647258
405,78.86086134389865
406,78.3534923659354
407,76.21239126549533
408,75.9336581063221
409,75.21194049431995
410,74.60560219342666
411,72.93127032046142
412,69.70333020743652
413,69.96516294918561
414,70.19130417462505
415,68.21177251229406
416,70.3186374500331
417,73.1686430129845
418,79.98398364784684
419,85.32972188307674
420,88.00416976103985
421,90.47453691267886
422,91.90073677489015
423,93.17342828648407
424,94.81274979986983
425,95.77334782942008
426,96.81413676084513
427,97.54555557174031
428,97.98957588838594
429,99.03230076472248
430,101.11580327950126
431,102.65885212438073
432,103.88948429356937
433,104.92306312779283
434,105.17363527408908
435,105.75923121506561
436,106.40958562041186
437,106.56351082946225
438,107.35069171689238
439,107.7691522758303
440,108.02557255406663
441,108.39907661239795
442,108.32262526165147
443,109.21295287124248
444,109.82943456721522
445,110.12930611168719
446,110.11590304947902
447,110.2413317997766
448,110.21883031949666
449,109.99362870250695
450,110.2440619771037
451,110.51518580850608
452,111.1866422777383
453,111.96177251646085
454,112.65190550547152
455,113.34082386838519
456,114.14870662016655
457,115.19409844021645
458,115.73341567798994
459,115.52931490034406
460,115.39286337189709
461,115.11724591685324
462,115.03118933500251
463,114.82979701864458
464,114.65160144959398
465,114.22656370334406
466,114.50433650505148
467,115.08985879334432
468,115.57338491916663
469,115.70380361643743
470,116.10944808678732
471,116.0641738886169
472,116.29464322762215
473,116.55600522466541
474,116.54170748430487
475,116.03569488171192
476,114.81807145848082
477,112.67646247877694
478,112.01150307569851
479,112.591278736838
480,113.95984036513251
481,115.77070461155667
482,115.76916058760355
483,114.39048988587858
484,112.66318570914169
485,110.73299739313138
486,109.15481801959156
487,108.475544086344
488,107.97389424724325
489,107.43282881145463
490,106.14849283278394
491,104.7284861805784
492,102.29881335701297
493,99.6144263499655
494,96.80500812219587
495,94.29152250094462
496,92.94643577625986
497,92.72499446771354
498,92.06785866173522
499,91.27269566132954
500,90.12896433931714
501,88.67278286912527
502,88.98240613661777
503,88.00945928119391
504,87.04710415756391
505,85.5594973770363
506,83.00358661631246
507,81.92592190109703
508,80.63614392297309
509,81.92328184661162
510,84.99721707976639
511,86.32840903242369
512,87.14031142729594
513,86.89991927293183
514,87.35323826751095
515,88.07618757499752
516,88.36482039605943
517,88.5429595149664
518,87.54762269614771
519,88.8151825749931
520,91.83979180688299
521,94.96166293158313
522,98.86077921024916
523,102.00531164218096
524,105.24491368832568
525,108.62404675455385
526,112.1269069144633
527,114.1618113977202
528,116.64395385403535
529,118.87582466374955
530,120.29853939360322
531,121.764881596068
532,123.12398339079252
533,124.52929695644518
534,125.50955241138999
535,125.85610084513405
536,125.91920523584693
537,125.22830963941544
538,124.28094549675288
539,124.14141930250103
540,124.6834605220129
541,126.48562155717553
542,128.65576153756223
543,130.87924696570877
544,132.94426932867194
545,135.6138674279969
546,136.91940330925416
547,138.8686018265064
548,141.20293450846773
549,142.7501854868059
550,143.91258981668713
551,144.92057051940517
552,146.23898945037763
553,147.17665756878017
554,148.03296601938473
555,148.88790234253077
556,149.5014676453123
557,149.78543493411138
558,150.01864635214397
559,150.12983113475846
560,150.15457212632637
561,150.03501167392378
562,149.70683411252358
563,149.51015735694057
564,149.03805396612807
565,147.66493763419996
566,145.22897022464522
567,142.82752068102968
568,140.0867448928026
569,137.6632655579643
570,134.91988726512076
571,132.50440333673814
572,129.7463230295843
573,127.37018989244123
574,124.84815052258027
575,121.72384518155458
576,118.6438638244881
577,115.28092640308186
578,112.74540616120802
579,109.43822530698358
580,106.44286529681287
581,104.32936158943686
582,101.61296969837264
583,98.06495100508069
584,93.77627732482557
585,92.34042784312038
586,85.56294438807205
587,88.6156141757561
588,86.70986421171773
589,85.69728533178996
590,86.46191403699466
591,84.13702006944945
592,83.18063047267393
593,82.72136478747504
594,82.40249955008724
595,78.48159679049775
596,75.67850832948825
597,75.88884425046894
598,74.61625777654018
599,77.07882760672425
600,73.73317429854698
601,75.28738677757786
602,74.20164626670527
603,72.96118770190787
604,72.45849859939517
605,70.09282817003177
606,72.35174449763514
607,69.18851752528256
608,65.76648179948315
609,64.44576232626541
610,73.45592373259657
611,72.79444911085668
612,71.85336592551961
613,68.96533843286441
614,59.87356168187638
615,58.15431720257782
616,60.783859128302346
617,58.58786473944799
618,59.146378220350336
619,55.78119215588477
620,58.17827280847633
621,61.684421798318574
622,62.294004246867146
623,62.04923289654314
624,59.0702338050573
625,56.93850462633935
626,58.24276926962504
627,61.95068248846907
628,68.95836735863088
629,71.0245618511317
630,71.21982269322731
631,66.34484938932424
632,61.15443339920296
633,57.1244577893744
634,55.64457101047642
635,53.358571521449555
636,54.38472042503565
637,65.74371496615994
638,73.88208277049728
639,81.77911742480197
640,86.06226923612417
641,85.64799820112252
642,82.48807281161679
643,75.11824134701628
644,68.20678584890015
645,63.989807528701775
646,66.09396173265992
647,65.8304217706473
648,63.72634337973392
649,60.71125808366558
650,69.22518252998934
651,63.82438303717851
652,63.667365770800544
653,61.87135448007056
654,64.86421529680521
655,67.96844282467187
656,67.50573672380771
657,71.62389277159787
658,73.30743641877271
659,75.37432417969858
660,78.43169324641545
661,80.13126547185662
662,82.58389003509797
663,79.6832536274925
664,75.56976839148265
665,67.31079472286524
666,59.73282634079702
667,60.31076549173804
668,61.36484942524958
669,65.34927598883937
670,67.49580720638492
671,69.26419118128157
672,69.84541201306376
673,71.99241444977088
674,73.52080268428004
675,73.30329502881528
676,73.34272790065842
677,72.11945022718933
678,72.42386694668144
679,73.48704916300144
680,78.17398511666724
681,84.09794474860661
682,89.36083342931394
683,90.76962384689273
684,86.99671153515914
685,81.68958908985826
686,77.37052628450957
687,76.28300014573362
688,75.67223498121592
689,72.92497794427362
690,67.99456943285549
691,65.66532532487155
692,68.96177529633826
693,74.55645618811597
694,78.66555164138533
695,81.34979249074289
696,80.12935111569212
697,75.59468100404908
698,70.74774436561576
699,67.5244293020852
700,68.99282564272464
701,72.73185958263403
702,72.654155490082
703,72.68077190013203
704,72.51105693974395
705,70.32394790276429
706,71.32949995337246
707,72.6735349131946
708,73.47713819175793
709,77.45040528809055
710,80.89544829721584
711,83.79171271356955
712,85.55057180042115
713,85.08304591320918
714,80.93109605278717
715,73.61540039842956
716,70.08557725421977
717,70.08186644838919
718,71.94442392210699
719,71.67465076762542
720,65.0026780235068
721,57.385542437136436
722,59.30788484865209
723,65.24936761145756
724,67.64907501325706
725,68.73249979002802
726,68.16455612449816
727,68.41007058264756
728,72.73472330694096
729,74.70689357465724
730,74.42864168493048
731,70.89282088126807
732,68.48996871378236
733,68.38849749492351
734,71.65647495233205
735,71.87313018961478
736,71.93907009552274
737,73.27908299877701
738,77.41902150199374
739,81.24218151368902
740,81.50637996500488
741,80.85496513274552
742,78.7890645051276
743,79.41329264500501
744,79.77257760420113
745,81.71962945890759
746,82.52471467828465
747,80.86087570935172
748,80.9729672650819
749,79.12379610669275
750,79.98010075921346
751,78.32605145633755
752,73.88426910016216
753,68.72472791529098
754,70.34370554845549
755,78.73119469369541
756,80.19757827642069
757,78.73373326747881
758,74.64587359949843
759,73.58915144038646
760,77.04038649143432
761,80.69330811308419
762,81.19988234061134
763,81.29998116976046
764,81.9513116762713
765,82.66105967586711
766,84.62735972944076
767,84.25508731960502
768,82.50218428335657
769,83.14416030258994
770,84.83368053644658
771,87.35620148606749
772,87.73925248339772
773,84.18817226468097
774,82.38341913366871
775,83.39125033191858
776,85.66656982638253
777,88.77894895984977
778,86.34172915614673
779,82.70566202645395
780,76.05035240103096
781,73.36143927747207
782,71.35371308738718
783,69.19419119993658
784,69.37722326509005
785,68.60329457569009
786,73.15835104073807
787,76.13559982315448
788,77.81113354024518
789,77.26292224372932
790,75.47984412502849
791,75.29927346437132
792,75.13485747649497
793,74.80851881253085
794,74.75008463225006
795,75.74767778593083
796,77.64058280286577
797,78.97111699816931
798,78.72432928731465
799,77.99101629449193
800,76.96674385433062
801,76.99852523341775
802,77.64364944531695
803,77.24161872381177
804,75.91900812887576
805,74.95096452902288
806,73.21386861144143
807,73.2835742275471
808,72.31629896762271
809,68.90899910465173
810,65.93688833656617
811,64.66109699235885
812,65.92355003670541
813,72.14686831845185
814,75.88224870950991
815,77.77967213284533
816,76.73022074264688
817,74.72023365724458
818,74.64115544452437
819,75.44595743327451
820,79.04094810532615
821,79.86682651190854
822,81.34473050478229
823,82.1900766509609
824,83.74770499330448
825,84.95715424581587
826,85.74103845875628
827,86.54680360850905
828,87.90733741340856
829,88.49225658580387
830,89.365349897886
831,89.69077639333028
832,87.87680717813898
833,84.72217745484313
834,82.56701200942932
835,80.3813622024268
836,82.18002660845843
837,83.9125230381906
838,84.6601023241409
839,85.32610498681171
840,85.69617818648466
841,86.09799813908005
842,85.721829235534
843,86.01498447661831
844,85.85109850010728
845,86.59302666645146
846,85.43957813347731
847,84.28065909501603
848,83.2312767258175
849,83.15824963599121
850,85.65953564569088
851,86.29860911735402
852,86.50544782668989
853,86.37298013310628
854,85.22834754636928
855,84.72172680824818
856,84.77148758179626
857,84.53972066323773
858,83.98329074205147
859,84.22184662316147
860,84.84523144147275
861,84.93732134529883
862,82.11915192017315
863,77.37422904170575
864,74.31210622815097
865,75.1698667609597
866,79.6779677488228
867,80.38899391252319
868,77.91611351783914
869,74.66675078185081
870,74.96470730210598
871,79.10289776981341
872,83.2538081546306
873,84.4554268500119
874,84.6372527994113
875,83.26104219778168
876,83.18351976606894
877,83.72435005036681
878,83.81029659528039
879,84.83925445905489
880,86.26174213337887
881,88.98946365667125
882,90.28141578070459
883,90.15120817064859
884,89.36641547005826
885,88.65653295264366
886,89.94866515067329
887,91.55024965895048
888,92.77809460432475
889,92.90870199401733
890,93.17356049703068
891,93.31347198844527
892,93.6695692720933
893,93.65232285138103
894,91.7513408366826
895,91.11804390928174
896,91.8935884954389
897,91.62828092587917
898,92.1562587674032
899,90.1332975172936
900,87.31492336737604
901,85.59478176129205
902,85.58901482712628
903,87.15522963147977
904,86.846772730884
905,84.31866253998086
906,82.31613829945074
907,81.41252711701752
908,78.65631810381875
909,76.53720499803073
910,70.22293221812524
911,71.3309279315361
912,75.50780181388521
913,79.45465194132188
914,79.3312137518042
915,73.32737506645262
916,67.80529632612236
917,63.81768997256137
918,64.88282866163048
919,69.7312737587342
920,71.37918008149364
921,72.37438133556924
922,73.14274032634533
923,74.12017652872072
924,74.59717159914331
925,74.31282864899329
926,71.74472639343813
927,71.68459626244639
928,72.58389896972264
929,73.60749430366735
930,75.32237026587543
931,75.34118550974954
932,74.81194845780377
933,74.76299412787286
934,74.814138503106
935,75.17244978934035
936,77.63856206670731
937,77.4309384671073
938,76.50268726839504
939,74.83497264301451
940,70.96480653160026
941,70.64231377485547
942,70.86647429339442
943,71.88562435732888
944,73.94121298046446
945,75.52862488695469
946,75.30873599465673
947,73.81744303684113
948,73.05111719961934
949,74.98399606853772
950,78.42530877113805
951,79.23536768205192
952,79.82615521712425
953,77.50727215558744
954,75.60928235730327
955,75.8288659030839
956,78.84150797732129
957,83.92575593294502
958,88.75779966541998
959,90.33483322530097
960,89.16384459408519
961,86.93386304324292
962,86.06464543445132
963,86.36754516833383
964,88.66039377799318
965,90.74724515597806
966,92.36419225618671
967,93.64077343051027
968,94.66583500574255
969,95.10339690726134
970,96.19522564604436
971,96.69902381800955
972,96.91289242409142
973,97.95628993572768
974,98.5944881710912
975,99.02348368078508
976,99.37665443301456
977,98.72921134446112
978,98.33164862097637
979,99.23009980028932
980,100.16848817673801
981,101.12917288069427
982,101.97114114645082
983,101.65698066039923
984,100.11160517031078
985,97.61324378486779
986,95.01982509592699
987,95.85785354619158
988,97.89527503619928
989,99.32658712171974
990,98.60433480976275
991,95.58169211038516
992,92.00871372095457
993,90.12941041978183
994,90.42305311653315
995,91.21672984810589
996,92.34390293923029
997,94.81843039220048
998,97.41853643334913
999,100.16632414311199
1000,102.75685622669569
1001,102.3181681413389
1002,101.24723718336608
1003,99.0926078707139
1004,95.61881694013904
1005,92.41207883658296
1006,90.26703270535825
1007,89.91459370203681
1008,91.58016011374345
1009,94.38181826447901
1010,96.37825996722323
1011,97.97671940124881
1012,99.29522338137483
1013,100.8600634340237
1014,103.41867541611717
1015,105.45678310789202
1016,107.16260011932224
1017,107.78240610642335
1018,107.71785693965833
1019,108.09598212723586
1020,108.72987677843905
1021,109.22196813697305
1022,109.72823802594567
1023,110.09100448004087
1024,110.70879400677255
1025,111.54383862993537
1026,112.28210604355945
1027,112.21713017543178
1028,112.13281033094064
1029,111.98488733195381
1030,111.5910924971299
1031,111.72668946394096
1032,112.3998747743941
1033,113.13629768750965
1034,113.58494821863529
1035,114.02346346383999
1036,114.02237291896697
1037,112.41292804975294
1038,110.08565178062369
1039,107.53927929425001
1040,105.44599380794438
1041,105.2755458926276
1042,105.53803730232408
1043,106.17588473733473
1044,106.71039454959707
1045,105.75068987240374
1046,105.91507949848258
1047,104.97212611298957
1048,104.8751802723173
1049,105.32832180399971
1050,104.10191225490539
1051,103.06218247839917
1052,101.33808958915112
1053,99.98680202502324
1054,99.8589267416923
1055,99.98110995149675
1056,100.83390294235024
1057,100.09491353394694
1058,99.45703978304381
1059,98.75615460649901
1060,99.31571296817198
1061,100.84671138221177
1062,101.60334368029997
1063,101.88634668439755
1064,101.33692971545507
1065,100.90826652625053
1066,100.67285155525585
1067,99.76631016213817
1068,98.52516343957035
1069,97.51286708192708
1070,97.68798719652825
1071,98.01198373232045
1072,97.73880882604247
1073,97.40599156225993
1074,97.71961919937827
1075,99.47285588873189
1076,101.09751826536248
1077,101.51096907060138
1078,100.25593822552194
1079,99.10788387138138
1080,97.96168634269837
1081,96.06247460369336
1082,94.87178752445931
1083,93.89843837200824
1084,92.89126662617292
1085,92.43751164038798
1086,90.93280883033164
1087,93.5328916259683
1088,98.41910803351664
1089,105.77732232918278
1090,111.75462975823773
1091,115.40189322413423
1092,117.16318762515029
1093,118.11790459402972
1094,118.89638022098242
1095,119.25288855178242
1096,119.07463967566646
1097,118.45641011750715
1098,117.65915125864308
1099,117.68453318054478
1100,118.13922632465537
1101,118.48887914776266
1102,118.89725875465204
1103,119.33299265698427
1104,120.02518494293236
1105,121.74842217934686
1106,123.26472351086933
1107,124.53844854780183
1108,125.38245559015151
1109,126.02831785675825
1110,126.01224233476674
1111,125.96403252567758
1112,125.91809533119329
1113,125.49868599058941
1114,124.93587611285623
1115,124.34199764157009
1116,124.06001304880138
1117,123.99208881343421
1118,123.9699844927006
1119,124.15411512475012
1120,124.56779673704477
1121,125.5202647177528
1122,127.1296125540658
1123,128.5104397062642
1124,129.7441144488925
1125,130.82677036180792
1126,131.72193952146426
1127,132.37573897489634
1128,132.618842095654
1129,132.626759548324
1130,132.0324437045186
1131,131.50941253179258
1132,131.20310730358483
1133,131.10614091724688
1134,131.32908321302335
1135,131.49461108054524
1136,131.7151411311633
1137,131.90682560535427
1138,131.93118029310978
1139,132.28642352354515
1140,132.94485899765866
1141,133.63202332767347
1142,133.8131793352364
1143,133.5660305973539
1144,132.84787624516918
1145,132.39996497638705
1146,132.02714049835623
1147,132.10289818294038
1148,132.1295141817318
1149,132.07808682683876
1150,131.7879331549833
1151,131.35848363484078
1152,131.06211503499114
1153,130.5139723513191
1154,130.23615177333045
1155,129.4807710982969
1156,127.49675323850278
1157,124.5840413263418
1158,121.6541971736343
1159,119.03349661394944
1160,117.9130716977902
1161,116.18253411557113
1162,113.75288466304453
1163,110.122832922003
1164,106.43966302913687
1165,104.16374052858698
1166,103.4302363307257
1167,103.29412203424619
1168,103.46580289342516
1169,102.99331641559705
1170,101.66266687174654
1171,100.7615176361221
1172,98.35487068042868
1173,95.95471869717754
1174,95.77740072229079
1175,97.86391663353389
1176,100.0491665579597
1177,102.18544032555582
1178,100.99501023999007
1179,100.40498465426782
1180,99.90756059946762
1181,98.84193604963484
1182,99.27443735818805
1183,95.96889087527619
1184,93.46193138667307
1185,90.82247659723019
1186,87.98136286617154
1187,87.95585762055771
1188,89.94173890828769
1189,88.79311754997308
1190,88.62870241488113
1191,87.0823314728686
1192,84.31147143114282
1193,82.95212252709081
1194,81.20118982570281
1195,81.59665692467561
1196,82.53987126718602
1197,80.0240711021784
1198,77.95169428354104
1199,77.70426769616023
1200,80.77495196815633
1201,85.51532882880383
1202,85.58196942514039
1203,81.52298442648387
1204,80.14764774451989
1205,78.29042227351525
1206,80.4421128257712
1207,82.93785398547404
1208,80.86370844058455
1209,79.75132244339743
1210,78.64006266059513
1211,80.97592071171366
1212,82.01771337304038
1213,79.62867966427959
1214,78.86945650437679
1215,77.14582815987738
1216,81.0273904029222
1217,84.80289500751375
1218,87.0613439563271
1219,90.43089180703173
1220,91.79998104390457
1221,89.6136697323441
1222,83.80731925364202
1223,77.86451031267171
1224,75.63487619004316
1225,79.43921735817683
1226,80.83568126838844
1227,81.4970025398792
1228,80.45581748661272
1229,79.03212667491619
1230,81.2120671254938
1231,81.41494444574705
1232,81.9826490955318
1233,82.4531461436484
1234,82.22150629369386
1235,81.81012480226744
1236,81.76548809101244
1237,80.41672054485866
1238,80.33989953759888
1239,79.81664360104347
1240,80.07723639441673
1241,83.27661293369326
1242,88.40692005239808
1243,91.33656916750259
1244,91.7871196302998
1245,90.81317671450245
1246,88.68720997191461
1247,85.47249292201234
1248,81.53162597361727
1249,80.43901610948302
1250,81.43660576563259
1251,84.31891973998866
1252,86.20452186756502
1253,85.9152547523105
1254,85.82739206896173
1255,85.74276681796557
1256,87.56392363738276
1257,90.22117287577494
1258,92.49873715898863
1259,95.0143072192485
1260,94.60458305808044
1261,94.93923888827159
1262,95.14024996521488
1263,94.77292408513938
1264,94.78746368245788
1265,93.77224493037481
1266,92.91894397349687
1267,92.4636424620062
1268,93.20062615698302
1269,94.23567373540767
1270,94.65545019107748
1271,94.53371462092069
1272,93.95417973831974
1273,92.83598805419271
1274,92.68659030615352
1275,93.52297492116804
1276,93.90147047485729
1277,94.10514880430217
1278,93.95905204977457
1279,94.34243524655483
1280,94.32688469706808
1281,94.11484019730011
1282,93.97159647587482
1283,93.61492405836911
1284,94.55292260418217
1285,93.98560132485441
1286,93.96480762617661
1287,93.97077354488563
1288,94.6992469574799
1289,94.26440940832045
1290,93.55596332787982
1291,92.65636178269803
1292,92.79358067810118
1293,92.94596485282898
1294,91.98953713023637
1295,91.67113835226101
1296,90.78064291274721
1297,90.1372324765826
1298,90.5561199414616
1299,89.00038782006052
1300,88.69402329167352
1301,89.77743717020275
1302,89.2696955786204
1303,88.94456310412116
1304,88.62185500304894
1305,87.5084968173629
1306,88.21921316068091
1307,87.95696635324902
1308,88.13367797132383
1309,88.27201306243352
1310,88.34031853674306
1311,88.74487134888783
1312,87.40277464866604
1313,86.98105638403145
1314,86.7824226844293
1315,87.19432477578593
1316,87.49995515419413
1317,87.35303314118961
1318,88.01387204397909
1319,88.63714629493371
1320,89.20764349644047
1321,89.33155842957113
1322,88.25306532995607
1323,87.25987464502349
1324,86.98244085982505
1325,87.11881467640082
1326,88.25941206458234
1327,89.16063841385473
1328,89.24748582216648
1329,89.86034291864111
1330,89.32948496057267
1331,89.15658590429805
1332,89.68436086290559
1333,89.64962056713881
1334,88.11546063271022
1335,86.26825955287163
1336,86.09046414732332
1337,87.25401583752056
1338,88.16368058603202
1339,87.57554938300113
1340,86.11041358150455
1341,84.71761844920088
1342,84.77133151907961
1343,85.50586208592071
1344,87.96177852187813
1345,88.40791592762555
1346,88.54882181770508
1347,88.45083537465491
1348,87.9297330457757
1349,88.00048975090257
1350,87.53565071201788
1351,86.3004021680686
1352,86.26464215941405
1353,85.98539775242692
1354,86.05382686624368
1355,86.3166264475336
1356,87.25133219684778
1357,87.65999261488457
1358,87.31262747020165
1359,85.94138125216136
1360,84.92047565898488
1361,85.27626569444317
1362,86.76294766189108
1363,87.17836051871856
1364,86.22528693873795
1365,86.6664973470533
1366,86.85170319691076
1367,87.40552418499361
1368,87.68627183610934
1369,88.31961971765384
1370,89.45313162095704
1371,90.94999001623759
1372,93.11368104159043
1373,93.45778538713672
1374,93.8153457735385
1375,90.41027894806905
1376,87.1534916817
1377,84.24237701056377
1378,82.5914522766808
1379,82.81703730350002
1380,83.54544524443635
1381,82.98032202931387
1382,82.8543191550931
1383,80.39600925638283
1384,78.64243065344829
1385,76.79585034927959
1386,75.18907274880422
1387,75.21476404926884
1388,74.16496485372133
1389,71.342349541915
1390,69.65919039093887
1391,67.83362643771098
1392,67.28842083818662
1393,65.52301693955825
1394,62.64213632568621
1395,60.728256488957854
1396,60.851403315270986
1397,62.127967813067286
1398,60.94843139573103
1399,58.58482945052773
1400,57.81736846987257
1401,57.17459507975588
1402,57.80012977637927
1403,60.686978835842574
1404,62.49926529023378
1405,62.88748905476841
1406,62.50101738922217
1407,61.40576674411123
1408,62.07311472914409
1409,62.29346539789619
1410,60.0672082909965
1411,59.7432249538811
1412,61.29372554353014
1413,63.43026485786915
1414,63.770523800974146
1415,66.11618968581627
1416,63.3176268898461
1417,63.29057358802844
1418,62.00768271729422
1419,59.32385833180113
1420,60.13925602588076
1421,60.18809637289144
1422,60.830609671665236
1423,60.608212054035654
1424,62.69505276178845
1425,62.67720558005722
1426,63.86943523023565
1427,62.91838121746183
1428,60.98289099813085
1429,62.69398450983616
1430,62.29073224076857
1431,62.84557067829382
1432,61.92131956800647
1433,65.89651575428141
1434,70.99511133675605
1435,71.21348943546107
1436,68.19676345763365
1437,61.268631449670416
1438,60.766712828368554
1439,63.82514975099844
1440,66.35698333886651
1441,67.77009776226936
1442,71.2441352969244
1443,74.12222030159188
1444,73.24226316264811
1445,73.29890256398292
1446,69.12291968166485
1447,68.7651468504325
1448,67.37591724856614
1449,68.31263521838689
1450,70.03562697139938
1451,68.7997537460023
1452,66.02507041516384
1453,64.80335400803409
1454,66.04121340636783
1455,69.79689051286594
1456,74.0398594888961
1457,76.15985231146686
1458,77.32560387658995
1459,79.39470688921648
1460,80.60809983733145
1461,82.02227378756861
1462,82.9470840313399
1463,82.62756396666427
1464,83.37443010091417
1465,82.69430699374433
1466,81.77230814262995
1467,80.00705071880127
1468,79.36177728456778
1469,81.38123373617861
1470,83.38488977096252
1471,85.83103987465968
1472,87.43797617596026
1473,88.31386186014335
1474,89.83022220320898
1475,88.06868262770453
1476,86.9821838479891
1477,87.48078200935579
1478,87.94859377083229
1479,87.58006571319403
1480,86.09885829564274
1481,83.91299134037727
1482,84.64976426584502
1483,85.90135315130475
1484,85.73675525745122
1485,85.87738129277976
1486,85.54220840600209
1487,87.1137671643661
1488,84.73528529874159
1489,80.57518230499281
1490,78.65802930636518
1491,75.07597277617906
1492,72.85441241368198
1493,71.17378358589576
1494,73.87871694422164
1495,74.9197065373022
1496,74.96422420342347
1497,72.82513375373273
1498,68.54086675018735
1499,69.8848883121738
1500,69.17019654576406
1501,67.99239971873176
1502,68.26670704378125
1503,67.90617466610712
1504,67.43446449777029
1505,64.9416507908018
1506,62.07181787762661
1507,62.63764759308822
1508,63.6560814908357
1509,64.23081034583224
1510,64.3575512868543
1511,63.4619488149105
1512,63.63883244348259
1513,65.89743210647949
1514,65.53166837599483
1515,64.97433206552361
1516,64.67370961144812
1517,63.90917457496614
1518,66.08384648890805
1519,65.5240841818102
1520,63.09267950090117
1521,62.11052166138712
1522,62.42394894952635
1523,63.197483355228
1524,65.38727126207048
1525,66.52362797565944
1526,69.35335565013307
1527,71.42124323813553
1528,73.42736484553052
1529,73.67822370533258
1530,72.08579273409556
1531,74.01180072638864
1532,72.80428862951631
1533,72.14497415391617
1534,70.48809764169317
1535,68.40192028819473
1536,71.31281074905802
1537,70.70993001753294
1538,70.06818780679157
1539,68.19453562618615
1540,67.41648476721308
1541,66.03826538413347
1542,65.03836764334372
1543,64.65454276962382
1544,63.53238902267322
1545,65.57708109276402
1546,64.44221444101
1547,65.22441111789306
1548,64.44988948131471
1549,66.1204601069604
1550,71.15229530809842
1551,72.43521725080323
1552,73.3256644519734
1553,70.7793396942301
1554,68.80761814656836
1555,67.08613467963323
1556,68.62217987944052
1557,69.83274741551926
1558,71.19916489231878
1559,70.54577603387565
1560,65.1193754823847
1561,63.961873508243166
1562,64.30394917868213
1563,65.0476828093953
1564,66.89217959748032
1565,68.30458804058165
1566,68.59082770072763
1567,69.18510738433079
1568,66.92961827984288
1569,67.26364166504874
1570,68.71676989336046
1571,69.76810002712219
1572,71.35609431842146
1573,70.05353060156104
1574,68.10795116479059
1575,67.85495329342494
1576,68.46823841113505
1577,69.26753807238426
1578,67.3607226959477
1579,65.29748260476296
1580,62.609982422407676
1581,63.617536568871174
1582,63.87798383802203
1583,64.87871205472113
1584,64.3399684180608
1585,67.31365887769742
1586,69.5656080189985
1587,66.31851245866983
1588,65.44718874914376
1589,61.81331341636587
1590,62.256962670093515
1591,62.406465141388495
1592,62.66103431879373
1593,63.41163414574809
1594,65.0984389910167
1595,65.77069829912168
1596,66.08595574668803
1597,65.2860426827975
1598,64.5695005507472
1599,67.0127436812305
1600,68.37271513080545
1601,68.05671341634823
1602,68.09932572714533
1603,66.8751362777181
1604,69.14418930818242
1605,69.16810265011111
1606,68.82473570886093
1607,68.5745469359325
1608,68.47823632616974
1609,69.23818067011307
1610,67.51605617405943
1611,67.16008197046418
1612,66.13834043811636
1613,66.38152044276877
1614,66.48822641687913
1615,66.72191585241713
1616,66.52006410293413
1617,66.38199420322574
1618,66.77528754595556
1619,67.46997968444083
1620,67.63751381987454
1621,67.18642675896815
1622,64.4412480701487
1623,64.43818501709896
1624,65.74488189522295
1625,67.46399150592227
1626,66.54298148233174
1627,65.4492258683811
1628,66.69610577012728
1629,67.67529318245059
1630,69.65313332994927
1631,69.00179442730101
1632,68.63894759235754
1633,70.02564737225167
1634,69.24289183789685
1635,69.86728642149492
1636,69.64036496591032
1637,70.91039167499973
1638,72.73630699389592
1639,73.15887467759646
1640,73.32183857363701
1641,72.7977808190066
1642,72.29253507659851
1643,71.42400311666228
1644,69.3609721740387
1645,69.49409109896982
1646,68.88335159763966
1647,69.78238048821157
1648,69.56943063655879
1649,68.65171485306178
1650,68.08624614233042
1651,68.93691257686436
1652,69.48444896383053
1653,67.53257180077253
1654,70.08153701321403
1655,72.64368052435489
1656,74.1368145418475
1657,73.4325210553858
1658,68.28205029549379
1659,65.84061503680039
1660,65.31734791189595
1661,68.17783171060964
1662,68.03414153437728
1663,67.88966842915899
1664,65.9803295409407
1665,66.60015720230636
1666,65.06378336448581
1667,64.67424444394257
1668,65.60955874473878
1669,64.46942034326415
1670,66.5742511787924
1671,68.05826034764672
1672,67.60138563541221
1673,65.77995334654737
1674,63.007522810865765
1675,64.13418054384375
1676,67.5982625139294
1677,67.8760412834018
1678,67.03653967339474
1679,64.34944162151696
1680,65.79021078986071
1681,64.47854321509732
1682,60.89824901903468
1683,60.63955095247661
1684,61.450794372478924
1685,67.76067857545044
1686,68.18707824741679
1687,67.2375131805716
1688,66.05952603363352
1689,60.92989296336989
1690,62.33986344454225
1691,64.11841617918898
1692,66.493191365275
1693,67.39243522425377
1694,67.07255097162519
1695,65.40792340583474
1696,68.11439463387403
1697,70.61114900679152
1698,73.47470470781383
1699,74.39720633806695
1700,70.4326167653314
1701,71.33532125669522
1702,68.41083979091887
1703,69.79305296408091
1704,68.34642557861551
1705,65.36616637727096
1706,66.8804300475858
1707,65.41376696044706
1708,64.72935979418571
1709,65.09212184064803
1710,65.21919834164194
1711,68.3078169497027
1712,67.15347509266924
1713,61.497624187682085
1714,58.409139208512634
1715,65.0543652209305
1716,67.60985524961094
1717,69.76776387285992
1718,65.86128530501011
1719,61.031468748077614
1720,63.20908880314622
1721,66.71635144353168
1722,71.64530231348705
1723,70.26599304369826
1724,67.9336643145422
1725,64.0935389647581
1726,59.55663076888444
1727,60.6212515404966
1728,59.62212045734945
1729,59.343547410618214
1730,58.98203987942937
1731,61.615165046640314
1732,61.553382858947984
1733,63.046779097598886
1734,65.53456073257618
1735,65.94275769122456
1736,66.138062933897
1737,64.33888729671772
1738,62.419724163118694
1739,62.181213639488305
1740,63.27724491277037
1741,62.16271866224229
1742,64.41490387111779
1743,64.68039468282709
1744,65.76191941817079
1745,66.39790395849023
1746,66.01404758425042
1747,68.69049314910293
1748,71.49267556346511
1749,71.77428195440865
1750,71.01953704060516
1751,71.84397247927836
1752,74.83043242595014
1753,75.80295822660167
1754,75.546516615657
1755,73.00619115506652
1756,71.54915030559954
1757,70.50083433210762
1758,70.11899464588785
1759,69.36555428152833
1760,69.83483865721888
1761,71.08354168790056
1762,71.15114454230049
1763,71.65950844133287
1764,69.430620510052
1765,67.60503466183906
1766,67.77376743809549
1767,69.29137990064257
1768,67.10240825181066
1769,66.11467130239834
1770,65.74033491785187
1771,65.20272737112656
1772,66.64205271450541
1773,67.564154684849
1774,65.11949542924143
1775,64.19905636175667
1776,65.10209977622105
1777,64.70414207736894
1778,67.15466685633426
1779,66.95895591526019
1780,66.99315453252207
1781,72.4513602194207
1782,78.01299852559244
1783,78.4183601021039
1784,78.12255576097905
1785,71.88673367456713
1786,66.08097013314429
1787,69.45578705787732
1788,72.97301049916129
1789,71.99680220879567
1790,72.10428289318821
1791,69.63778381600903
1792,72.03004660239333
1793,73.7394831180761
1794,74.43134748565757
1795,78.47587443003441
1796,76.19445278487186
1797,72.7365769261752
1798,66.47846595314887
1799,53.59507163785597
1800,60.42554737766766
1801,61.54677869687459
1802,62.45538608983621
1803,62.641509321127614
1804,60.33982251312776
1805,58.28443793445688
1806,58.240695281996764
1807,56.29030463102811
1808,58.3508437510301
1809,61.004812445913615
1810,63.458101601945636
1811,61.08867561650915
1812,60.71400238436887
1813,57.22288861219682
1814,57.88661196927804
1815,58.196607021392325
1816,57.807407264843036
1817,58.60913566216895
1818,60.965560498666434
1819,64.10179995936885
1820,64.74599757867182
1821,65.03660592206175
1822,63.2193963102886
1823,61.57726929725573
1824,61.88124215891888
1825,62.02837494745366
1826,64.08652162941243
1827,64.78281023870444
1828,68.30787048412793
1829,68.71253265893752
1830,66.64026524219638
1831,66.95890973889749
1832,62.389030763623154
1833,61.59156266806499
1834,60.418687354385824
1835,58.39289599145355
1836,62.08779896230346
1837,67.46480379931226
1838,67.06186707918336
1839,63.38555740904694
1840,57.171583350941354
1841,54.51503647225386
1842,57.1884618119962
1843,58.00261417468629
1844,62.62639805951109
1845,64.75215135246808
1846,66.82511566096086
1847,66.41218369294216
1848,65.8910407065807
1849,65.99203432466703
1850,66.62344456092765
1851,69.64973466516142
1852,70.85595979686025
1853,73.16426117326577
1854,70.06537948526956
1855,66.30541973704165
1856,65.53972613300768
1857,63.00248601820215
1858,63.243845243842244
1859,61.79590681620958
1860,61.40505219593164
1861,62.414671217292366
1862,64.24120566963539
1863,61.9948870602863
1864,64.23928763942192
1865,60.22587454190251
1866,59.1958240113842
1867,58.27909848668684
1868,62.55133355653432
1869,67.61130678634876
1870,66.3759021815509
1871,63.45932417494512
1872,61.1005463118445
1873,58.80720618302416
1874,64.11063444965706
1875,63.924115249339664
1876,64.97331678148427
1877,65.66491520335822
1878,64.17280212023805
1879,65.60826118140122
1880,65.29589553809015
1881,64.81914556881559
1882,65.41994272798789
1883,70.41056121708482
1884,73.68908116629524
1885,75.0078085731579
1886,73.689509677284
1887,71.44728403916255
1888,70.43020275419433
1889,71.96881909661678
1890,72.18410995077255
1891,73.10682249383393
1892,74.63738671761297
1893,71.7256558948057
1894,70.13458009453677
1895,67.44805488327184
1896,67.35249558001047
1897,69.71832491437786
1898,73.76109310776508
1899,73.05762662905835
1900,73.36868061219292
1901,74.15832045710664
1902,74.53730231217077
1903,75.91721533275333
1904,77.1929585884211
1905,76.31051865895934
1906,76.10304705388249
1907,75.03752647944395
1908,73.67613888126935
1909,74.2435540961779
1910,74.7307535160795
1911,75.04976612746142
1912,72.92747709681557
1913,69.48715816104333
1914,64.28267656004704
1915,60.65165672819984
1916,56.48718669525921
1917,53.96629001459564
1918,54.36075298271023
1919,57.076225103759874
1920,59.592108649409454
1921,59.840614646120294
1922,63.484628967796205
1923,60.04359782898569
1924,56.728818541423855
1925,52.11096749519728
1926,51.184218773903304
1927,54.15928917458069
1928,55.27533838322247
1929,54.6487685233879
1930,52.58544552811164
1931,53.30760922153331
1932,52.844427446318264
1933,53.83291552594834
1934,52.74357274927214
1935,51.8967293907225
1936,51.166966444419245
1937,52.93251426456903
1938,53.40870535156284
1939,54.28477848810979
1940,52.47774818495704
1941,49.808716750390644
1942,49.43358622696425
1943,49.62378972017868
1944,51.913012483572224
1945,53.2731569853241
1946,53.74378124136351
1947,56.41730474656679
1948,54.755044661073924
1949,52.164764173797714
1950,52.125526404955394
1951,53.84814460191334
1952,54.850003156343384
1953,54.321434439709336
1954,53.899449216942024
1955,55.23301228892657
1956,54.6249770896495
1957,55.57065225020548
1958,54.61017075553103
1959,55.6333272248586
1960,58.11006585676356
1961,57.56409185798369
1962,58.787751672459315
1963,54.45910289175573
1964,55.73639735214176
1965,59.97888920676501
1966,62.44176608278665
1967,62.88969464185054
1968,60.03515745880504
1969,57.36788993982979
1970,55.985890897951954
1971,56.15958407911254
1972,60.01672223657977
1973,63.79525303160426
1974,60.7066701390243
1975,59.15627868835187
1976,53.44063148087324
1977,53.730162113499325
1978,62.16061041133234
1979,61.086261639351356
1980,61.10093015517675
1981,61.89558727682374
1982,58.155023171677136
1983,58.016129506021976
1984,58.68603498495424
1985,62.14067074511119
1986,68.48254000800463
1987,69.42816846771714
1988,68.73205696197958
1989,71.97739866744351
1990,78.26045338225074
1991,82.44005803745969
1992,84.05124120156623
1993,85.32786198289091
1994,87.87836615107508
1995,91.03872429064039
1996,91.78469397876721
1997,88.11120038934098
1998,83.74901969943933
1999,76.69686212506063
2000,73.21503344573156
2001,74.30585065233277
2002,71.86267414681859
2003,74.21708741402455
2004,75.63263069781061
2005,75.5297513312643
2006,76.13996600094907
2007,75.67933298255258
2008,75.45334210014565
2009,74.45350246177856
2010,73.70577827339581
2011,71.74785755571207
2012,72.4698952298587
2013,74.18273278256214
2014,75.55698658927834
2015,74.48671577223047
2016,73.39583648471333
2017,71.76970933480656
2018,71.04625787393383
2019,73.47890235028223
2020,75.54668279986154
2021,77.87527548017624
2022,79.93671713440067
2023,80.78418466414786
2024,82.2742972965325
2025,83.03767100362707
2026,84.93522892556592
2027,85.82906461102388
2028,85.5499367311904
2029,85.90174130320396
2030,86.2120523036921
2031,86.14984476937155
2032,86.6087228012775
2033,87.44249474081289
2034,87.93816613775878
2035,88.48939741439227
2036,88.42844623683632
2037,89.5848562554732
2038,91.00078569634411
2039,90.90346623887358
2040,91.83394359311971
2041,92.08774994628106
2042,94.20749506133711
2043,97.00188011159308
2044,95.49035029746565
2045,92.03526409789977
2046,88.55971143995022
2047,86.14767909184874
2048,86.63777409773003
2049,88.27087253823215
2050,88.82951383298905
2051,89.13587726513471
2052,89.53699240036048
2053,89.2085173894522
2054,89.6670103194387
2055,89.14845484103576
2056,88.34189906408184
2057,86.98153664826535
2058,85.4955460200051
2059,85.83731219397806
2060,87.04403445602883
2061,87.0714368333354
2062,87.3054020091668
2063,87.0715981728997
2064,86.67485312503669
2065,87.44289780514238
2066,87.32428653962549
2067,86.77203117202487
2068,86.24428200300972
2069,86.655911318698
2070,86.7489795838162
2071,86.72804046264316
2072,85.61354686058532
2073,84.73811894624524
2074,83.93966858067071
2075,84.26953836558747
2076,84.35417473229079
2077,85.22699499247128
2078,84.80843840162254
2079,81.37712556523347
2080,79.23183387395667
2081,77.96114047795514
2082,77.65618749711375
2083,78.39218042633968
2084,79.41735475924494
2085,78.65702060195746
2086,79.04122893407384
2087,77.75014047934538
2088,76.80583476944248
2089,78.97452438740956
2090,80.04781147056954
2091,81.64552689436336
2092,81.2224005438587
2093,80.76152593229152
2094,82.11267382813278
2095,83.05317511007667
2096,83.5385083151685
2097,83.73248179655904
2098,80.74869628745026
2099,78.73764296829225
2100,78.59044775020446
2101,76.45843313052211
2102,76.92461290067416
2103,75.52938119639462
2104,75.84337322261621
2105,77.56034679023439
2106,76.24196676758862
2107,77.35756185727993
2108,75.09155797060073
2109,77.22143578691038
2110,80.53666094771647
2111,79.57398372744646
2112,77.85698311437243
2113,73.4793051242618
2114,73.76225540284815
2115,79.46809036090593
2116,85.5773483348129
2117,86.34131546944512
2118,83.13785451244544
2119,77.39152721484933
2120,73.73847220477317
2121,74.76990693700566
2122,76.41100393860364
2123,76.80047231865244
2124,76.90775770028782
2125,76.17724976516375
2126,75.75990638384259
2127,73.88002865416266
2128,73.41909561296849
2129,73.61841769247982
2130,75.55099619712752
2131,77.54536747260103
2132,77.21348134340926
2133,76.79147485392217
2134,78.15316641055836
2135,80.41485733750541
2136,82.3615040073918
2137,83.52037670106256
2138,84.9867229194379
2139,86.48563127566013
2140,87.19948780405542
2141,88.00969222499465
2142,87.64628093938357
2143,87.9509177044865
2144,88.82204527562062
2145,89.26681783479948
2146,88.12628377054048
2147,87.35149147563313
2148,87.10794503155398
2149,88.61345972666842
2150,89.5416018902546
2151,89.77870470982666
2152,88.62463067824892
2153,87.25549954004563
2154,86.90201036843351
2155,87.78433304682005
2156,87.3966635368468
2157,86.3582193958302
2158,84.45475012756205
2159,84.02705700226743
2160,84.91123760270501
2161,85.38002907183929
2162,85.80639234519208
2163,83.74166659288004
2164,83.59189968180279
2165,84.54270827932972
2166,88.08118046365828
2167,90.3561120554315
2168,88.82738672760871
2169,86.57211092335852
2170,80.19817583318101
2171,78.23110078599633
2172,79.34189917499623
2173,80.00073994633107
2174,81.08184776123825
2175,84.71681889434815
2176,87.93900519730434
2177,88.04966951714884
2178,86.06304753489714
2179,82.20546921342556
2180,78.5745316655546
2181,78.89895529629462
2182,80.51656641753851
2183,79.42531015963837
2184,79.30111800628555
2185,77.10081283787466
2186,76.50718776950096
2187,75.41879298627009
2188,74.54349953035408
2189,77.63362062074636
2190,79.31343987645296
2191,80.75181557406032
2192,79.70740060799703
2193,76.81310612318676
2194,77.6006357106499
2195,77.51480390853881
2196,75.75034034004074
2197,74.31278872469369
2198,75.10214889963126
2199,77.39524675927369
2200,77.87362774570977
2201,76.38014531816023
2202,72.04557146830619
2203,70.15435455300695
2204,70.29049146705178
2205,70.75694574336707
2206,72.08231934412436
2207,73.43432312691287
2208,75.82279242036238
2209,76.77639904671929
2210,76.70040196469157
2211,77.15299931390254
2212,78.00047991848677
2213,80.13107861798186
2214,83.64309850233886
2215,83.6954177427315
2216,82.44591808578281
2217,81.02292183041224
2218,79.33565907576713
2219,79.60699433544416
2220,79.53308930715251
2221,79.40208853228208
2222,80.46022674658717
2223,82.83536106214771
2224,84.74817725135915
2225,86.56473175133952
2226,87.4272408384462
2227,86.8590032458832
2228,85.62888478422163
2229,83.61038392913308
2230,86.21610258872906
2231,87.22650553781489
2232,81.96806476204789
2233,76.76161146933563
2234,62.8931052416401
2235,63.850391191590134
2236,73.87907308075582
2237,75.44026785652564
2238,76.83244927788004
2239,75.87685548438172
2240,72.75097238591621
2241,72.73771597751762
2242,71.60535484835034
2243,70.5149518013572
2244,69.8288968297245
2245,68.75353195847768
2246,70.32531732942434
2247,74.68041925186911
2248,79.73325325312226
2249,79.52232830837575
2250,73.74111683647823
2251,66.0772012907334
2252,59.69706660075902
2253,66.68826338498953
2254,70.84155676027548
2255,69.87282561691887
2256,69.9899135484279
2257,68.12824546397364
2258,75.46020918544477
2259,78.95031784639946
2260,79.00790052679704
2261,79.35833166739292
2262,77.27335342623411
2263,77.10708178505512
2264,77.21287754179652
2265,74.4884592417173
2266,73.64368440732727
2267,72.02988565571809
2268,71.68262894457234
2269,74.4020928423811
2270,72.81291515225928
2271,73.17616176515271
2272,74.35150958449474
2273,76.63369120678296
2274,80.04841772568396
2275,80.0649216860784
2276,77.45037864722545
2277,73.73284415944326
2278,68.4543967770873
2279,66.57275254367687
2280,68.45408268699848
2281,70.10012639369806
2282,69.54093737204703
2283,69.0118916854569
2284,68.35861498231787
2285,71.79358837104097
2286,72.27062801463198
2287,73.11750987309568
2288,74.56890055081597
2289,74.50374813207318
2290,71.73104748080097
2291,68.27461579320737
2292,67.07263543743599
2293,69.41630837035822
2294,72.9377618967608
2295,73.7410570356089
2296,74.12100850307974
2297,75.96223280650598
2298,77.41184726985357
2299,78.5032952528502
2300,79.30153484443147
2301,79.17583181837561
2302,81.05676895508734
2303,84.19779834011116
2304,85.30405174755711
2305,86.24927256882398
2306,86.164456927772
2307,86.13707061520228
2308,84.75680114694401
2309,79.97970139694462
2310,74.59943603552117
2311,73.76088101589949
2312,76.98304849833688
2313,79.18267755127516
2314,78.35189710697779
2315,76.42261113854924
2316,71.72290328639488
2317,71.32346846065508
2318,68.41729360043198
2319,68.73940387339925
2320,70.3669197354103
2321,74.82903123467436
2322,79.35525418965187
2323,77.18849909403156
2324,73.3730779549189
2325,69.03622863535685
2326,64.40822144655547
2327,67.43435441707821
2328,65.01355211800445
2329,63.78358022787032
2330,66.38462800758558
2331,71.32040150626912
2332,72.94074632880026
2333,72.44094338515907
2334,68.98568044930116
2335,68.4621710565067
2336,70.9811042026763
2337,73.07052178336004
2338,72.62676199780674
2339,72.8893342852478
2340,73.45697040280258
2341,75.56468297038758
2342,74.2898639673598
2343,74.82689070902482
2344,71.72682345033559
2345,69.14146593038667
2346,67.86207245234725
2347,66.12819252931554
2348,69.66556938104226
2349,68.22725436961537
2350,67.76188599525254
2351,66.93560807277838
2352,68.64195035769629
2353,68.6609299931878
2354,68.16294364498404
2355,67.91857837829079
2356,71.13934030929404
2357,72.50843332423645
2358,69.9455979284921
2359,67.15689320070727
2360,67.23771794052524
2361,68.83320959195287
2362,70.28765765626477
2363,72.0648481356478
2364,72.35583075522274
2365,70.8534302516525
2366,68.67335214038793
2367,66.54755618391187
2368,68.0794063872531
2369,71.24504194200979
2370,70.37367542691501
2371,69.24146179670215
2372,67.87064180155754
2373,69.32355777305443
2374,72.85628705270503
2375,72.11555514625476
2376,73.20346722756403
2377,74.52941907396273
2378,75.83193912069117
2379,73.2105016657967
2380,71.19090779864703
2381,64.83601975163769
2382,65.18050011602823
2383,65.51694383014765
2384,70.25340525891872
2385,73.59902331712803
2386,72.76906015510187
2387,69.83195753907339
2388,64.07455251664061
2389,66.88374498591493
2390,68.89153469575601
2391,69.04089970793811
2392,69.05378055163158
2393,69.06096164259063
2394,72.65288752200006
2395,73.70130651298078
2396,70.48407834439503
2397,69.08913272935003
2398,69.19647476654552
2399,71.9335288020971
2400,73.00017470510505
2401,72.24600038064017
2402,73.27217921819171
2403,72.28330413020961
2404,71.28441709129996
2405,68.55973940648306
2406,69.26047123208981
2407,71.25548714208186
2408,71.90576225174422
2409,71.75501992388104
2410,66.32733231854108
2411,64.16400338326878
2412,64.02768896707732
2413,62.8569363393363
2414,63.89213238756339
2415,63.73591178609389
2416,62.24969878883438
2417,62.03918728306202
2418,61.93193762104432
2419,64.40659039643086
2420,65.84679663609944
2421,66.50155278049448
2422,67.59800835670971
2423,69.003727893805
2424,70.84224326753088
2425,71.57895061579505
2426,72.23427984652074
2427,70.43335278165094
2428,68.94127882061792
2429,68.74097840971918
2430,68.64134203274573
2431,71.07507529207844
2432,70.78629761755218
2433,72.16409703618777
2434,71.21824133152295
2435,72.12151068247267
2436,70.92779496250046
2437,68.55579292834233
2438,68.66081184905484
2439,68.49528705891534
2440,70.63751392373436
2441,66.34620253336156
2442,64.43256989833701
2443,63.545943334131984
2444,62.5537255074957
2445,64.01184774045483
2446,65.38951749856054
2447,68.39110773252452
2448,72.5488869520111
2449,74.50851961118123
2450,74.50234650495064
2451,74.5373984311504
2452,75.61506876319878
2453,74.05319299898011
2454,71.75729631831597
2455,70.86033885598658
2456,74.13803101726022
2457,75.70669492925397
2458,77.0963487246895
2459,74.37393558990523
2460,70.89058430245736
2461,75.32589493275614
2462,75.17716660079009
2463,73.1699212495301
2464,69.93251774542057
2465,65.08447936119529
2466,69.7489624140653
2467,69.30510364737133
2468,68.62528314382688
2469,67.23724777962576
2470,68.51741934905488
2471,69.40552487600706
2472,67.5575316105139
2473,66.26838851175057
2474,63.53815556324078
2475,64.65146302225897
2476,65.59672145727701
2477,64.90163211157349
2478,63.83585174860901
2479,61.11743603792648
2480,61.32267170012706
2481,62.195495938514355
2482,66.35114360527608
2483,66.18071913234618
2484,63.750089552702775
2485,63.79756634343364
2486,67.20067128073697
2487,69.07337000860988
2488,67.54200044337192
2489,63.565850639929764
2490,54.273892193589944
2491,54.216322832682344
2492,55.78632473131844
2493,59.17329146129425
2494,58.875538141677325
2495,60.21435205960897
2496,61.27452207083951
2497,65.52087046373006
2498,69.58870561954825
2499,71.97254203706062
2500,71.3203505015701
2501,70.71528102882507
2502,71.50195763541171
2503,74.49367078560552
2504,74.34422886303273
2505,71.33206113784027
2506,68.2394493219422
2507,67.13498197106166
2508,69.03140643828657
2509,70.81268908856958
2510,72.30324412785856
2511,73.48936071153493
2512,75.85716228015407
2513,73.80117697712188
2514,73.40940036327088
2515,73.40549289841773
2516,71.72585250090285
2517,72.93129715569538
2518,70.674908887776
2519,69.62298609708688
2520,69.99316213529316
2521,71.18896151555249
2522,73.31590837458027
2523,73.76441128174388
2524,76.24958230659011
2525,75.74086295719405
2526,75.81727540279608
2527,74.43386028067376
2528,69.08628551133799
2529,65.05915276520153
2530,63.649976296023326
2531,61.84737486809308
2532,69.04312518545905
2533,69.37039206743795
2534,69.66882203097558
2535,64.85139819020085
2536,61.0926829254443
2537,62.794445265327816
2538,69.28684808905093
2539,68.29221093776094
2540,64.35592792250809
2541,61.00412171381652
2542,63.08053212368659
2543,62.393493271084466
2544,61.02424038689771
2545,59.779531393153704
2546,59.59906629184359
2547,64.93369400773935
2548,68.04277203377796
2549,71.27436142173691
2550,69.7921023643068
2551,68.87566406937732
2552,67.35307316120117
2553,69.1104344827756
2554,67.72262170739009
2555,65.12913211305435
2556,64.1636640061133
2557,66.4519374528457
2558,71.07745642731179
2559,71.87538822155528
2560,71.76555276214279
2561,67.94846068913355
2562,66.49207735867768
2563,67.52702344981859
2564,69.93697247996143
2565,71.68636725102702
2566,66.17616830927751
2567,64.72169558564893
2568,65.01221929733742
2569,68.04259680305307
2570,71.79236920168826
2571,73.0499810581608
2572,69.06457649881904
2573,66.86395540005672
2574,65.42004955450616
2575,65.40473842525752
2576,66.52926334907512
2577,66.09286431181408
2578,63.27408780291408
2579,65.4469850109944
2580,64.64746391585456
2581,63.106683261505836
2582,61.82259249911273
2583,67.73183984448545
2584,74.04567402902825
2585,70.9681635535291
2586,70.21593083734518
2587,67.18559128987442
2588,67.6186112883764
2589,70.16187408351958
2590,69.55550698801645
2591,67.88509255178928
2592,69.56552625725149
2593,69.33734997566609
2594,69.91373504181392
2595,70.71101742957842
2596,70.77376892523306
2597,72.24482719342613
2598,72.03900080382247
2599,72.57439561815814
2600,71.03510314661196
2601,71.09676651220616
2602,69.94869762787692
2603,69.197833253407
2604,69.97534798042074
2605,70.34512689610337
2606,74.76303394048551
2607,76.33225834804912
2608,74.46377686542705
2609,73.0251123979406
2610,70.10598780270234
2611,73.94402307009612
2612,76.21370680130242
2613,76.7929742514679
2614,74.13083303420719
2615,74.05924521414663
2616,75.8289650853351
2617,77.29127746478137
2618,77.06869204023477
2619,74.60902124885712
2620,71.85107761217108
2621,72.40166454604797
2622,74.11890938470317
2623,76.68121532521953
2624,78.33933209388417
2625,76.79002929303614
2626,74.9736764975518
2627,74.02487371780889
2628,75.78448194000619
2629,76.91517809102976
2630,75.368552141724
2631,71.05321870788103
2632,66.911608585208
2633,66.50267996768632
2634,70.29422665191578
2635,74.38335547530136
2636,75.81611580727414
2637,73.96622905502916
2638,71.95654887745003
2639,74.40571561021798
2640,76.2730724313799
2641,74.0740688433682
2642,71.09646569507704
2643,66.67975140543831
2644,68.93119483882778
2645,73.1596473383864
2646,76.6269104116466
2647,77.66063352318932
2648,75.73913634861798
2649,74.67910117125211
2650,74.13555211336907
2651,73.80260650750365
2652,76.36067834572772
2653,73.85639799670629
2654,70.91326308696392
2655,68.53305971570956
2656,66.81956474817933
2657,69.70067471156563
2658,74.00312846283285
2659,73.42119420362467
2660,72.60273836288039
2661,71.250677951831
2662,72.14681860397357
2663,75.23300829757028
2664,76.57914908237453
2665,74.0605917140446
2666,72.68088937752364
2667,70.81717654170528
2668,70.58360815707397
2669,71.0345692605313
2670,70.13082819139487
2671,69.7886253992026
2672,68.8607285939909
2673,71.94711424016799
2674,72.25823688072684
2675,71.65661643158458
2676,69.8344780466386
2677,66.94529846663445
2678,68.49532835022787
2679,73.08347059268186
2680,72.19683527066843
2681,66.90809279546069
2682,61.58122593846542
2683,61.07947710496052
2684,65.56796329341014
2685,71.4354475330341
2686,72.46279414234978
2687,73.05707451736782
2688,72.18903486682987
2689,70.15225992578988
2690,71.70393586979675
2691,74.40463638706734
2692,74.44099417045555
2693,75.03389497935471
2694,74.72011555759407
2695,73.942257419461
2696,74.17924923606488
2697,73.9399297354097
2698,74.60008169200256
2699,79.26967444728967
2700,79.46613661367657
2701,76.89867750038707
2702,70.600455575642
2703,61.850891193889154
2704,60.705259376514064
2705,66.67297538417911
2706,72.99762299392664
2707,69.95080133285451
2708,67.3798719657063
2709,66.36846440211318
2710,69.82399556577631
2711,70.1427505101998
2712,70.90646685128726
2713,72.01817860083385
2714,72.87059545205237
2715,73.853430617122
2716,73.62723770533671
2717,74.41059272535013
2718,77.34581002269812
2719,77.6223312942945
2720,76.49469586633482
2721,72.39537074015102
2722,72.48247434155246
2723,76.38340439945335
2724,77.93716293597289
2725,77.45923245158419
2726,72.17565854021029
2727,69.7178879233554
2728,73.77401961419518
2729,74.2028973341459
2730,75.38209343924292
2731,73.95312423035786
2732,72.1057727070572
2733,74.0863061520708
2734,76.24276378413032
2735,76.01963564190591
2736,75.47358429974337
2737,72.57737024287351
2738,68.44116973362424
2739,68.82577611091243
2740,71.41945438180335
2741,73.86470956889931
2742,72.89700298413297
2743,73.62801890503931
2744,72.49010110161724
2745,71.96694209715551
2746,72.05376084440596
2747,72.99639852482089
2748,71.0356673716048
2749,69.71410654168358
2750,69.52518724837444
2751,68.4205442003298
2752,68.64059148350057
2753,68.63657561604118
2754,65.54059552080373
2755,62.63105790172962
2756,63.33539726938341
2757,66.1701448869237
2758,70.27129657710212
2759,73.13403209194252
2760,74.08602650068654
2761,73.83361329984966
2762,76.5873591634957
2763,79.5234212821172
2764,79.15522381448507
2765,77.70695076563723
2766,75.30260673608947
2767,74.60969725568904
2768,78.40175520522308
2769,77.52691947142537
2770,75.432774714837
2771,73.75161849677518
2772,70.91231148154932
2773,70.95533115513271
2774,70.55293739039669
2775,71.99703787504376
2776,74.16424424771738
2777,73.38314696589558
2778,71.4129587899949
2779,71.44289135200174
2780,73.77017184825685
2781,75.81989017022525
2782,76.3146215523506
2783,77.41408107272801
2784,78.30785499352184
2785,81.07452495367471
2786,81.46593560431324
2787,81.11671080482748
2788,80.21142126829895
2789,77.44904553266066
2790,78.9266480456858
2791,81.25007722138841
2792,79.73966988730098
2793,76.15596803488188
2794,71.30264551668319
2795,71.03765035337011
2796,73.6584394106473
2797,74.3696061131892
2798,72.00352589465334
2799,68.77259466667522
2800,70.93184534459374
2801,72.93921813011806
2802,75.81581127716346
2803,77.35979736203686
2804,79.06504813735711
2805,80.68124283006678
2806,78.94363616544024
2807,77.51076023654267
2808,74.92919996987686
2809,72.9827800786717
2810,70.35730077684042
2811,71.5569319609102
2812,74.16325652851485
2813,74.79463777856719
2814,75.39206806324876
2815,73.64606415181761
2816,70.95369963287796
2817,69.06248199271332
2818,70.403250823527
2819,71.66516969347182
2820,74.00078631629393
2821,74.36529109256338
2822,73.44805310646451
2823,72.69784540170436
2824,72.42222915648757
2825,73.39160724145088
2826,75.81419307719574
2827,79.22236811111091
2828,78.49077479376979
2829,74.36789568269526
2830,70.5646302802962
2831,71.06887500387833
2832,72.64273738015413
2833,71.18097114138504
2834,68.47491953941385
2835,64.43856413138978
2836,66.32326496766679
2837,66.11017160823181
2838,65.67596734618817
2839,65.9912131130381
2840,67.58779421723587
2841,68.80987650489332
2842,69.32435939156784
2843,71.78850040788497
2844,72.41942788077228
2845,72.66258944951804
2846,74.10887599960077
2847,76.0979831255014
2848,76.14756089262353
2849,74.94627058815098
2850,71.78537763429478
2851,68.41556319031099
2852,72.62564204544475
2853,71.1821226541633
2854,68.19630801751973
2855,67.24766465231176
2856,69.3346599724948
2857,72.58459447501379
2858,74.41532521140334
2859,74.75743949073531
2860,72.54316840751818
2861,69.75205185912509
2862,70.66635999913575
2863,70.31746854240144
2864,73.35992534643472
2865,72.58600208370018
2866,70.78567312521993
2867,66.1941028868612
2868,64.29843253399376
2869,66.95965055705896
2870,67.88182755146923
2871,68.45030304139061
2872,65.9400385573264
2873,61.58178779506779
2874,67.44691475762914
2875,66.93072778236541
2876,67.19139334447212
2877,64.35074408173084
2878,63.03085783424545
2879,66.92112066431879
2880,65.62212232800704
2881,62.73965866251689
2882,64.18028501176964
2883,64.77067673377339
2884,66.51516646077742
2885,67.99017509233292
2886,66.57028233788071
2887,66.72754373504092
2888,68.71395420785723
2889,69.34766288828416
2890,69.15865700777692
2891,69.49069285234933
2892,67.4565606237886
2893,64.87063715572518
2894,63.44276313427517
2895,58.77774143210941
2896,57.70033939495057
2897,58.784744029564095
2898,60.07807987823394
2899,64.02893522659691
2900,64.40677131229069
2901,65.05481264836733
2902,67.0566415690571
2903,67.19644149825251
2904,66.33813803847713
2905,67.65999912856655
2906,70.12183324715488
2907,70.65823393937205
2908,68.49359798577522
2909,62.397033951472814
2910,56.03530360762892
2911,58.70769575484456
2912,63.06882968730379
2913,69.38037888797064
2914,68.47779127469164
2915,66.66506472063497
2916,62.83126063310772
2917,57.67307303297093
2918,66.99755001802365
2919,68.0206184659709
2920,67.9499885734734
2921,67.86173850666731
2922,63.89826565759367
2923,65.85296309151002
2924,66.97369873906717
2925,65.05840806471141
2926,63.93809305536871
2927,66.52597526634668
2928,67.45991050046965
2929,68.68855631096032
2930,66.66057489487063
2931,62.09509710093034
2932,62.28752779754704
2933,63.92620084169545
2934,67.01247510338229
2935,65.85566644819663
2936,65.07978384766588
2937,68.87947548577789
2938,68.22556902981601
2939,68.90062958934772
2940,65.9306183844706
2941,60.21317138780858
2942,63.60356477820198
2943,67.10519250109664
2944,69.43573308451558
2945,69.70429883178602
2946,68.69442134529191
2947,66.76250967655976
2948,67.1494377631852
2949,68.09116559294142
2950,69.47200327895519
2951,68.31019752529278
2952,67.2928607149419
2953,65.09301297244102
2954,66.24172981575313
2955,67.1097384098934
2956,66.42462359697517
2957,65.06125310166945
2958,64.65390061190581
2959,66.60222633386275
2960,67.5822257486738
2961,68.56747651612895
2962,67.32823060103331
2963,64.11557871812917
2964,64.49930116739482
2965,64.38718399385502
2966,67.7300516296236
2967,68.22237736100848
2968,65.89245866178688
2969,63.615609198395916
2970,63.88312197532894
2971,64.82378148424888
2972,68.9007897184219
2973,72.43868608556966
2974,75.770808160512
2975,77.849995019278
2976,75.45844929371044
2977,73.36144237242657
2978,71.99517997122423
2979,71.52833492996075
2980,72.55787142912791
2981,73.89689479842339
2982,75.1803607959856
2983,75.84212159867658
2984,73.60047267813462
2985,72.54976089413762
2986,67.23517595454015
2987,66.0802135402605
2988,64.8206346473066
2989,65.3320971615648
2990,69.10960068076494
2991,70.53655559926797
2992,71.78935243158185
2993,70.01905377205415
2994,66.80017275491427
2995,67.57546208612494
2996,67.3225420161317
2997,69.53044786646898
2998,67.13678730885823
2999,64.66946704777295
3000,62.74967629846654
3001,65.96367121013161
3002,66.28046561445646
3003,66.52210090617409
3004,63.710189695917215
3005,62.91340200015448
3006,66.10106994974595
3007,67.58141221495606
3008,67.35231527397013
3009,65.47476956288828
3010,64.35151969802764
3011,65.26000700530825
3012,68.22568392578242
3013,68.83508281950081
3014,70.16768331742959
3015,64.83824473508432
3016,60.9283681419069
3017,64.57985231154271
3018,67.99448305371216
3019,66.69463388733996
3020,63.25836230171643
3021,59.12980851571409
3022,59.08513492591275
3023,60.12181471444645
3024,56.957029498155435
3025,53.32509077417311
3026,53.357792321720886
3027,54.17457444506421
3028,54.23867352148352
3029,54.152331219425896
3030,55.07883432010627
3031,63.91300163969943
3032,64.91978121740188
3033,64.8459306293949
3034,65.07555141971852
3035,60.820434921330154
3036,65.66021323551544
3037,70.05742785301226
3038,68.95078791064213
3039,68.45543072360081
3040,69.54379907256588
3041,69.66251965173365
3042,71.3957952412423
3043,69.99941405554185
3044,66.05854159978132
3045,64.8236337603233
3046,63.45337617266823
3047,66.08096445826489
3048,68.6138416983755
3049,68.54389354680255
3050,66.56967555710062
3051,64.42068054754185
3052,62.59833806957665
3053,61.522424574971915
3054,60.599760011183356
3055,61.826984110208805
3056,60.73123645860012
3057,60.362150424887794
3058,57.618918406446255
3059,57.89133787579882
3060,62.960609541935305
3061,64.08422535662041
3062,62.11537744159349
3063,59.781268631319904
3064,55.81725758710065
3065,58.890238894358994
3066,62.269806492443664
3067,63.284278819436175
3068,62.72740470336844
3069,61.9356452106489
3070,61.07623384895809
3071,63.21785699740239
3072,63.483120922449594
3073,63.984170471079096
3074,63.36005172142977
3075,63.02660620311093
3076,63.30715906564755
3077,64.23765306529295
3078,63.49224292039457
3079,63.109478501259225
3080,62.00368868149637
3081,66.88234615955747
3082,68.70043157057924
3083,70.42405233589085
3084,71.0030832074548
3085,68.77589880691876
3086,66.32032172260547
3087,64.37955719690821
3088,65.96358927825776
3089,67.77669443632644
3090,70.22038516566991
3091,68.52258067111589
3092,65.6888480554487
3093,66.6118772020578
3094,66.43084787288116
3095,66.32142573920284
3096,65.42430574823894
3097,63.79552468812638
3098,63.77244506253617
3099,65.72010858405503
3100,67.30959884655654
3101,73.0730363338
3102,77.45504943173793
3103,74.47924547868413
3104,70.34241029172088
3105,62.72544666206701
3106,64.62387828794536
3107,66.30813943368284
3108,69.0241868676438
3109,66.79638388948538
3110,68.2649535835583
3111,67.96105932014342
3112,66.52836604819609
3113,65.0201608471732
3114,61.414817893320695
3115,61.91755752370984
3116,63.29284072478303
3117,64.5449675228031
3118,63.433981267991435
3119,62.8570219760213
3120,62.20615216750875
3121,61.99321588829005
3122,64.82178268804722
3123,66.11210769572328
3124,68.45723936460006
3125,69.23190723519791
3126,67.0938800885531
3127,68.59524654252553
3128,66.58376725830428
3129,66.10466556937018
3130,65.97440733608755
3131,66.54827051875608
3132,68.65613185367235
3133,68.12281591372934
3134,67.43710327260797
3135,66.77190872525114
3136,66.37049983118914
3137,67.07329138545246
3138,67.72276916240625
3139,68.44940465839068
3140,68.55537068914307
3141,66.81070329081146
3142,62.442744186640994
3143,66.134413377354
3144,68.49179695560503
3145,69.3629696515134
3146,66.50237817545732
3147,61.570469396241556
3148,64.07752199422374
3149,64.63747634359136
3150,65.32032694151029
3151,62.467898198631566
3152,59.17017231018996
3153,59.47069529558677
3154,60.55251721124268
3155,62.77302707718443
3156,63.035559842617616
3157,63.909876182859726
3158,63.94569025338082
3159,65.0052351922318
3160,65.77242771887401
3161,66.07882094363245
3162,67.56196502674842
3163,68.09072439713307
3164,70.14096478722485
3165,66.59817253132121
3166,66.20548978692295
3167,63.8277035669582
3168,62.7915849765217
3169,63.55095917070583
3170,64.51563881776815
3171,64.1127496081686
3172,65.97756636439948
3173,65.09237074854795
3174,63.57300664573909
3175,63.34785428700395
3176,63.19099016641498
3177,65.33390122586937
3178,69.02310378039401
3179,69.44576484845112
3180,69.9667218828727
3181,70.95998845226059
3182,71.06803410521553
3183,71.87939041355445
3184,71.65638258664626
3185,71.39515658991937
3186,68.96758276671912
3187,67.24468773813871
3188,65.10957312891473
3189,66.03953064885744
3190,67.73160182291521
3191,68.70338777790913
3192,65.22336179307041
3193,63.12589112096219
3194,60.13057176472968
3195,62.38471062585352
3196,63.572759598362765
3197,65.45083845284798
3198,63.83340087991509
3199,61.83623229689296
3200,64.92171349899282
3201,65.03258783098912
3202,67.14920909606604
3203,69.50333915228866
3204,70.39181803596854
3205,68.25710984949689
3206,66.10899786106438
3207,62.82102782373324
3208,66.06066720688082
3209,69.84057302282991
3210,74.58519344751375
3211,74.8640924728907
3212,72.17807207042662
3213,69.90138234147568
3214,66.32044630180877
3215,66.54490372479765
3216,68.24913158922455
3217,68.4593901691025
3218,70.52588766483443
3219,70.58227284745271
3220,70.00204530729121
3221,68.24096043330229
3222,69.01258378997787
3223,69.61764456987336
3224,70.43594642711138
3225,71.57218118670612
3226,67.60628542871063
3227,63.94469927755044
3228,60.77304604672973
3229,59.83729280794666
3230,61.26171377544602
3231,60.13321631164576
3232,56.64795136138992
3233,57.15286408952429
3234,58.41251244470576
3235,59.46241379130161
3236,59.15020610829538
3237,57.69051221912577
3238,56.2668553358999
3239,56.42908121509071
3240,55.745457788533656
3241,54.95849205093322
3242,54.524394537485506
3243,53.86799354875664
3244,54.30672885678655
3245,54.97450764348727
3246,56.72791038586363
3247,64.50529691784344
3248,66.54424527061735
3249,64.87261602792141
3250,61.76545467092251
3251,56.58490747505298
3252,58.88495282297767
3253,65.21520366546751
3254,69.14551990422994
3255,71.81757752961701
3256,72.02023346326254
3257,65.2471569520481
3258,59.94927828930611
3259,58.80727424651913
3260,63.476003464207274
3261,68.1219500337289
3262,69.15081877489888
3263,68.37855880755845
3264,62.01454203759198
3265,63.71970926030108
3266,63.797465268364675
3267,65.45957984626696
3268,66.41159764515757
3269,64.44858980737048
3270,68.43020336561761
3271,69.83201103140985
3272,70.6645194227612
3273,70.28271449948303
3274,67.2997515219333
3275,67.54848129149897
3276,65.41040590444467
3277,65.0968448058802
3278,63.29744632859698
3279,65.29753151374608
3280,67.88379227706999
3281,66.8770056880047
3282,66.19078544286808
3283,66.95593111711855
3284,67.96597887242007
3285,70.92040901472666
3286,70.75833644261925
3287,68.33575710956069
3288,68.68101358580017
3289,73.72830230867922
3290,77.06579051980812
3291,76.06296791800793
3292,73.09118151316147
3293,68.74917327731686
3294,67.77773885796462
3295,68.79054479717817
3296,66.28009986916433
3297,65.8923907300723
3298,64.1104155353361
3299,65.37813050094147
3300,65.22842821819256
3301,62.46537510817671
3302,62.36742817951852
3303,61.0427129631092
3304,61.66782925887592
3305,62.115380811738675
3306,61.97803868210088
3307,63.17264847545158
3308,62.4725547803214
3309,63.528964373483895
3310,66.31176457952779
3311,67.18002280355843
3312,66.15739719321289
3313,66.98948280254018
3314,68.31119478142985
3315,68.12904206906725
3316,66.48418463281926
3317,62.809349640729785
3318,58.9344166132803
3319,61.01080737803072
3320,64.52492925568234
3321,69.43250352745234
3322,71.69527905081671
3323,70.79683571219766
3324,64.0474156278365
3325,57.6390609908389
3326,62.63562737466712
3327,65.88087565542546
3328,69.7577505377491
3329,73.23522936298805
3330,70.43791535229614
3331,71.33120846103586
3332,71.18304400488519
3333,65.59439449503189
3334,64.43012116078751
3335,60.50996907798957
3336,60.473696878050774
3337,59.96124404815348
3338,62.668758997863684
3339,63.24870592021767
3340,61.50326335713239
3341,61.28459576034959
3342,57.48348522311422
3343,59.55179123356681
3344,62.06449114694596
3345,66.01213508841668
3346,65.93818829582254
3347,67.02638410402365
3348,65.1513262349986
3349,65.96245951631042
3350,67.98880715499587
3351,68.79710858096246
3352,70.6503784391843
3353,68.3649018525618
3354,65.52612759940504
3355,63.926681636926205
3356,67.51867003099264
3357,67.75879248014589
3358,67.12254500459306
3359,63.6153952040203
3360,59.182374205588424
3361,63.0963051462682
3362,63.03421210329458
3363,62.175742421566504
3364,61.553275605069835
3365,62.83708498779628
3366,66.12897017182766
3367,67.4374155192466
3368,65.47559975370694
3369,64.22638026008633
3370,66.01190279438424
3371,66.40309189227324
3372,64.66893106357391
3373,60.8300119683969
3374,57.41672076031353
3375,61.0697133304785
3376,61.30360204777236
3377,64.5984860532271
3378,63.710818146697264
3379,64.79665759088232
3380,66.38559146956379
3381,65.17184640304228
3382,63.25259591041488
3383,58.60200420994362
3384,61.091244208343355
3385,64.65150542619558
3386,65.42807351942147
3387,64.31917055060555
3388,60.41092905494559
3389,64.08125535866682
3390,66.80142185212208
3391,65.37972919188576
3392,63.84791368754167
3393,61.35375901596951
3394,64.47715192254743
3395,65.79326813470915
3396,61.677479798249784
3397,59.178232366717445
3398,60.104627811612374
3399,61.93602671479875
3400,64.19843147358537
3401,63.8573046244939
3402,62.61323697883539
3403,63.002483002217936
3404,63.69339485074342
3405,68.15274473530563
3406,69.88449633330147
3407,72.31169637663902
3408,73.0535806018894
3409,74.0586924712835
3410,73.06199880309642
3411,70.76382321064268
3412,69.60105936230931
3413,68.96439071311946
3414,70.61921806166633
3415,70.03695737474573
3416,67.38821457738047
3417,68.64121848599524
3418,65.91838482913123
3419,66.24002708230978
3420,64.35889421739942
3421,63.08478700957666
3422,63.846474946306124
3423,67.31334428597629
3424,67.88913034393559
3425,68.2866499957542
3426,67.70000601810901
3427,65.58275056235628
3428,68.95421613860253
3429,66.57798132085077
3430,68.04842568914289
3431,70.539639451333
3432,73.31802301268809
3433,74.86068693267038
3434,74.8058426504098
3435,71.92497395497134
3436,72.76308690959904
3437,75.22747031951288
3438,74.04559908748304
3439,72.72963949589217
3440,70.45827717175926
3441,69.36955184288377
3442,69.03868291261725
3443,67.32984056076361
3444,65.69537537730145
3445,62.92468962345758
3446,66.49341877033477
3447,68.33447217959505
3448,66.30722087220505
3449,64.55479104558913
3450,59.39654519930402
3451,57.334740888705696
3452,59.33548671869145
3453,63.41851870201993
3454,66.64462135479495
3455,64.37700997377978
3456,66.99078173552923
3457,66.75780774476029
3458,72.18716594532839
3459,77.01229565937285
3460,75.92451536641613
3461,73.71064290961553
3462,67.3564639545456
3463,62.68537822114985
3464,61.22334991138857
3465,60.8092374123612
3466,58.56909883879698
3467,57.076929217691834
3468,56.35623484050797
3469,57.753031919294756
3470,59.631490722540796
3471,63.98837453913585
3472,60.47161455074456
3473,59.3732273288756
3474,56.877500367389544
3475,60.21146136964952
3476,68.7347646421202
3477,77.62159327821786
3478,84.40919716781355
3479,87.92735674529476
3480,87.93011002581181
3481,84.22323563073267
3482,77.29105295505948
3483,74.7860547848269
3484,73.01564115910891
3485,73.90603743267609
3486,76.74213993890531
3487,76.70983780362187
3488,79.11343139031374
3489,79.21645102802535
3490,79.85138180441865
3491,83.24727874044498
3492,85.57333421640853
3493,85.75155142891214
3494,83.4430018050173
3495,78.71106126557885
3496,76.30484311016562
3497,77.32991344028228
3498,81.3229750714356
3499,82.41931151243905
3500,82.6641095540547
3501,81.18794250283378
3502,82.28645353152731
3503,85.41905536045051
3504,87.78173530417179
3505,87.32548041663989
3506,84.23662199423407
3507,80.22479976515741
3508,75.58049312320821
3509,77.37029796459211
3510,78.96095573384339
3511,79.62673991260013
3512,81.04699623328918
3513,82.93955683019081
3514,80.16437799647636
3515,78.52728864008874
3516,75.71143838931461
3517,76.4642540830316
3518,77.48517983522169
3519,77.7814584344917
3520,77.04706890826381
3521,77.83348408832654
3522,81.3219616502069
3523,82.44642062300763
3524,84.56972487702689
3525,85.1436322462855
3526,85.82029825107786
3527,85.9217178196546
3528,84.77083376721927
3529,84.6694209322371
3530,85.44064794332967
3531,86.26785197199158
3532,87.2045301963563
3533,86.33802742754366
3534,83.31108728695156
3535,82.79019150904536
3536,83.36703372348082
3537,84.90045394049793
3538,87.09979274685729
3539,87.47738079152532
3540,87.11671554996445
3541,86.60556053462071
3542,86.58341032597497
3543,87.5801169239307
3544,88.82268151768088
3545,88.26288231033783
3546,88.00202408678233
3547,88.9694068778472
3548,91.04132601042238
3549,91.9922978917339
3550,91.56983218968888
3551,89.15160273723701
3552,88.22606276851057
3553,88.840466430039
3554,86.61955824867309
3555,84.61362393299578
3556,81.66166485153356
3557,78.92412610098917
3558,80.55176297572405
3559,78.98634179764058
3560,79.49816253366154
3561,82.57962101458017
3562,86.33274141035064
3563,92.22349969500151
3564,93.81589004484472
3565,93.97874885937698
3566,93.30769023825927
3567,90.95021308775556
3568,90.37081070748853
3569,88.83279124659835
3570,86.7794064048389
3571,84.30218697787976
3572,83.34761579594814
3573,85.0943473802492
3574,87.8014527121819
3575,88.9464250339187
3576,88.56642444885856
3577,87.73826590209839
3578,86.69073280846952
3579,86.66617474161534
3580,86.36191545326773
3581,85.24650267789602
3582,84.06153091764465
3583,83.95962670339982
3584,83.8276451495166
3585,84.19004682493679
3586,83.80310901711256
3587,85.54628287233449
3588,86.38465767435939
3589,85.75564681774402
3590,85.31912298144553
3591,82.61450148793645
3592,81.53506844083554
3593,80.06077908188037
3594,79.63120174391146
3595,79.69245566193659
3596,80.85867581648958
3597,80.53487265520018
3598,79.5855164595083
3599,78.7861768525759
3600,80.07208306393557
3601,80.63576500343572
3602,80.87350744816214
3603,80.2132102373919
3604,78.86570140194256
3605,80.87630768554959
3606,81.0013006702292
3607,82.87832373987499
3608,82.98965534316946
3609,82.8543629344406
3610,83.29062022115991
3611,85.50616561544098
3612,86.21642488971206
3613,85.04084148896702
3614,83.79489273805335
3615,82.30172218258281
3616,83.38780121364357
3617,85.3211866217879
3618,88.21897668435466
3619,89.85230492041713
3620,90.66679108661026
3621,91.8437077444114
3622,92.20547952076703
3623,93.47522506200933
3624,93.58468834890101
3625,93.5124599338158
3626,92.86051444771918
3627,94.03879488227375
3628,94.66585027691843
3629,93.17518057998568
3630,91.75360165110156
3631,90.9707363249113
3632,91.77288370636792
3633,92.44147517488322
3634,91.88500764381924
3635,92.47660070492856
3636,92.83631919412392
3637,94.90263656380102
3638,94.43172457791037
3639,92.72969159898834
3640,90.89478702041237
3641,91.51942683639615
3642,92.23521487847599
3643,92.26280820690678
3644,91.1716415306287
3645,89.14193761895878
3646,89.46048769398061
3647,90.25013311898849
3648,91.32415478331909
3649,91.52191171150317
3650,89.29856119201631
3651,88.32199812477442
3652,87.9603541423639
3653,89.2132861927185
3654,91.43420878753112
3655,90.5270081516191
3656,89.70250530418967
3657,89.07207564795462
3658,90.21954350977298
3659,91.5310418584579
3660,90.8314768077753
3661,88.98485801484433
3662,88.46884597385935
3663,89.70895940836652
3664,91.18986323062049
3665,91.2353942035565
3666,90.12998863568708
3667,90.05338004334803
3668,92.08805453944528
3669,92.73051500866403
3670,91.77458216355899
3671,91.05319954479923
3672,89.67480954427225
3673,90.8309746426969
3674,91.69658109256983
3675,91.03700775281692
3676,90.25263539304414
3677,89.59578303252151
3678,88.03038582062241
3679,88.66332364564536
3680,89.98473359582383
3681,90.72322720730097
3682,90.95341656369614
3683,90.50799169888823
3684,89.04454662883215
3685,89.34626656949305
3686,90.63180287581662
3687,90.62205631020106
3688,90.3868206849405
3689,89.30475465049945
3690,89.659213259771
3691,88.31136923396085
3692,87.13452722072374
3693,86.7537974494811
3694,84.67976547606887
3695,86.4390884457972
3696,87.38353329969367
3697,86.34348732155102
3698,87.32737153797878
3699,86.37358846573446
3700,85.75822403626314
3701,84.51646218659317
3702,84.42952664088249
3703,83.82651346573115
3704,84.14208406798866
3705,84.2703134929395
3706,83.31997600384108
3707,83.63618262744365
3708,84.67295035676125
3709,86.03393875369598
3710,86.57100967756395
3711,87.0052444068589
3712,87.15511226891135
3713,86.78139947238073
3714,88.38932198164689
3715,89.34593907245143
3716,88.059279693157
3717,87.09365169748617
3718,86.81239873688214
3719,86.84441754927586
3720,87.88002445153468
3721,87.47019875265913
3722,86.04629434796217
3723,87.67662608397174
3724,90.12531261855786
3725,92.83101719825623
3726,93.37489005763452
3727,92.75564569462448
3728,91.71219730121338
3729,91.0970195663415
3730,90.82477688784708
3731,89.42914319104074
3732,88.49477128376822
3733,87.19641125766113
3734,86.54804319902698
3735,85.75670651840329
3736,85.02893998226381
3737,84.95091441091533
3738,85.19986578566854
3739,85.95954519713463
3740,85.82078071189588
3741,85.69903763797085
3742,86.40038835216743
3743,87.74475779172752
3744,89.71142861968234
3745,89.07034458809159
3746,88.08615661510292
3747,87.09620474634247
3748,86.26578073537767
3749,86.99887925248949
3750,88.54711322123264
3751,88.55309415310582
3752,88.68002824861126
3753,89.20115684195915
3754,89.4174366756276
3755,89.20813293550454
3756,89.68974694092448
3757,88.9355133872938
3758,88.59989214632603
3759,88.88823747623455
3760,89.27823548081949
3761,90.55557430275726
3762,90.57785850594036
3763,90.9021794278285
3764,91.52637393684172
3765,91.73436621387668
3766,92.41272723015078
3767,91.87608509225589
3768,91.37217336743443
3769,90.10785254299005
3770,89.46145315748906
3771,89.49002640525109
3772,90.59750777064191
3773,90.41553971889628
3774,90.87975259889097
3775,89.80623166277284
3776,88.457437843661
3777,89.98571192974697
3778,91.52949523898165
3779,94.03706640131023
3780,94.50710134147506
3781,93.67543156918636
3782,92.17424828859173
3783,90.7547241575859
3784,91.54252441017094
3785,91.12292085987836
3786,89.62411857682308
3787,88.86391724947917
3788,87.98159679963531
3789,87.92141101321225
3790,89.00244239844483
3791,89.66989840854842
3792,89.15501665954406
3793,89.56272544163666
3794,90.00505335574103
3795,91.07713438945298
3796,92.49079165454219
3797,93.21320508830999
3798,92.24844966073191
3799,91.87640682406
3800,92.98069077760749
3801,92.9713228518508
3802,93.34804124626429
3803,92.51438181174196
3804,91.02094997546236
3805,92.59875199661523
3806,93.13774180039269
3807,93.09687869464568
3808,92.89697396273031
3809,91.973717335129
3810,91.65896015701509
3811,93.04797536430213
3812,91.77186256675178
3813,92.67331462614654
3814,93.1521989274252
3815,91.7116567963662
3816,92.09685016847355
3817,90.51965956755663
3818,91.13303804067309
3819,91.00201758441995
3820,89.70676568222933
3821,88.84423377089527
3822,87.57665871002578
3823,88.33526466597783
3824,91.64391942481184
3825,94.31578025510716
3826,96.71410209233774
3827,98.75611849605565
3828,99.44705432795247
3829,99.83592104180296
3830,100.31853596082826
3831,101.06468641167983
3832,102.35326239681238
3833,103.99327447273123
3834,106.11002776379816
3835,106.5323493524446
3836,107.26132876548034
3837,108.06234941022323
3838,110.22487225171758
3839,112.10959637143387
3840,114.36116160175838
3841,114.55229831007658
3842,112.84023067036112
3843,113.42144556200729
3844,113.29998968459351
3845,114.22006199885593
3846,115.38266295052586
3847,116.19569422256602
3848,115.06769886629148
3849,113.63987726892431
3850,111.03194648994973
3851,108.33793427058029
3852,107.32667944918101
3853,105.99311499685258
3854,104.53259392221068
3855,103.40032543813078
3856,98.47795725938137
3857,96.31177041380651
3858,93.24575636934087
3859,89.56241857008142
3860,89.12553388206722
3861,88.640204124844
3862,88.07965839466974
3863,91.48262483658381
3864,91.68051553565422
3865,88.50001620733063
3866,85.86808583630378
3867,78.93546946157699
3868,76.58863342343986
3869,76.56880313993614
3870,79.51803902398568
3871,81.33927616941774
3872,82.10239626551228
3873,85.50388265749528
3874,87.17781588704621
3875,89.08285285567997
3876,89.65934358985218
3877,88.87958877433313
3878,88.64801678949874
3879,87.78891222725247
3880,87.99274974441424
3881,87.33359358398688
3882,87.32295036587841
3883,87.78299125885658
3884,87.99925918936576
3885,88.81441726877277
3886,90.5147039837358
3887,90.37909189286732
3888,89.7020322103992
3889,86.55386995177591
3890,84.587371094452
3891,85.10591833880605
3892,86.38807114279984
3893,85.03273955729779
3894,83.80466221365175
3895,81.40091566592987
3896,83.96244708814844
3897,84.81870562930777
3898,84.39088580377545
3899,81.67812026234219
3900,78.30455200414977
3901,76.25878254113645
3902,75.04960124694136
3903,74.55410078748123
3904,73.15684407735125
3905,70.94670551119503
3906,68.38163072630473
3907,66.5541354408827
3908,65.94282241468522
3909,66.94359055310395
3910,66.91723959707711
3911,66.24088302539187
3912,65.6047739213893
3913,66.20395222794014
3914,66.89871635199924
3915,69.83596385391509
3916,74.88007716635465
3917,77.2847207882632
3918,76.998486075799
3919,77.24034494671542
3920,75.29499759364923
3921,75.15530171158447
3922,74.68028100862145
3923,71.33596047922553
3924,69.57696616453242
3925,68.95321005117239
3926,68.34328782382146
3927,67.38696001940227
3928,68.70485379952956
3929,70.14830650746886
3930,69.61478216175604
3931,67.09650070665539
3932,64.51093248307956
3933,64.81821046626776
3934,66.0123716837247
3935,68.40701458635017
3936,69.65227622848185
3937,70.84789349908732
3938,70.79096270704896
3939,71.30391995217911
3940,71.61411178140268
3941,69.95952974093765
3942,70.22226745911613
3943,71.10864323591359
3944,71.91327249336187
3945,72.57125019218657
3946,71.33088153755932
3947,69.6047916505461
3948,69.16804700201253
3949,69.73006113911373
3950,70.26055459377443
3951,72.19421279209651
3952,72.93756483979638
3953,74.69806570684338
3954,77.14328459840124
3955,77.19131396196883
3956,76.20413591839495
3957,72.99982318923315
3958,70.55783042434352
3959,72.28506445264613
3960,71.77666707895293
3961,71.64736463260984
3962,68.90005501657657
3963,69.69372467436705
3964,72.58831291253352
3965,72.11515419898801
3966,70.15209461983676
3967,67.4101653176306
3968,68.66578749193519
3969,71.79911907777085
3970,74.0067991708185
3971,77.54793098026695
3972,79.1771815373481
3973,82.1021586280338
3974,82.79601434916307
3975,82.50410499048648
3976,83.51037224060356
3977,84.1285918765404
3978,84.08705719407784
3979,83.53243775349743
3980,83.11598099841814
3981,83.21732973920466
3982,83.40105739472779
3983,80.17797802932425
3984,77.27843899744852
3985,73.89349188653674
3986,73.96596689901068
3987,73.9734387943289
3988,73.2446052785646
3989,72.53580455540956
3990,72.9208167813305
3991,74.28762988595636
3992,75.22253304716753
3993,75.42802335074387
3994,73.67444411222232
3995,72.95367261730517
3996,72.22681495266706
3997,71.90621896931499
3998,72.89075120342476
3999,72.4695116377649
4000,71.95063548510909
4001,70.33999104385848
4002,68.61250431766942
4003,68.3834148189195
4004,69.71669549653788
4005,71.61317345764608
4006,74.33937857752812
4007,75.87290513617101
4008,75.12757827675948
4009,70.56265829639656
4010,67.47777016457665
4011,65.25591945986935
4012,65.96149258556443
4013,68.93329668575255
4014,69.35248186599286
4015,69.39734564152496
4016,69.07514835870303
4017,69.2901738085387
4018,72.18764216770975
4019,74.2804931643798
4020,74.9736677827579
4021,73.71316482096016
4022,72.31427570926755
4023,74.28895626683847
4024,75.43245269032418
4025,76.80681259153258
4026,76.08402718518398
4027,74.90871006904662
4028,74.8956100771071
4029,78.02834237014741
4030,78.88544986694836
4031,78.68338114473516
4032,76.46039799366685
4033,71.67957850445069
4034,70.73256369733161
4035,71.19449496657555
4036,72.65388023363442
4037,72.4784893813949
4038,71.35940784814755
4039,69.8076623903569
4040,69.12369191293868
4041,71.643145969444
4042,72.4638918235042
4043,74.83219175219631
4044,74.09960623186281
4045,70.16505145377545
4046,67.87248178293522
4047,67.0552064382747
4048,70.85930723637327
4049,73.31256420115521
4050,73.76677899127543
4051,70.89039926967956
4052,71.40343223692255
4053,71.4314285029489
4054,70.97593619333605
4055,70.40206667353601
4056,68.61937549674543
4057,69.24472990327254
4058,71.42456047839639
4059,72.62048021500408
4060,71.58270510520497
4061,70.41070114733698
4062,67.874640619931
4063,68.75802761069733
4064,72.96374010928238
4065,73.34139046325956
4066,74.9016042838025
4067,75.32175099072691
4068,75.0935602905278
4069,76.38516061153295
4070,77.49580448620594
4071,76.42576482636244
4072,75.91311429423514
4073,73.84907684114266
4074,71.27988936266294
4075,70.40750040168075
4076,69.94857432944826
4077,70.40759571559316
4078,69.36645488123304
4079,69.48711541144989
4080,70.22386328689493
4081,70.70736526223274
4082,71.53569660369928
4083,70.71796264596271
4084,69.74634187360752
4085,67.75495936929147
4086,67.49116279715406
4087,72.8947253834265
4088,74.38193879784124
4089,73.2611677338483
4090,70.50313191469718
4091,66.66740961755963
4092,69.30991707359837
4093,70.85557019788695
4094,70.171918639615
4095,68.17247233197892
4096,67.14053999095464
4097,68.36640212069275
4098,70.022050170488
4099,70.28512482192814
4100,68.39627610196555
4101,67.83120183943024
4102,66.04781953427553
4103,66.66767588555479
4104,67.56142902792098
4105,67.70806432445744
4106,67.78433430944041
4107,67.9727704728082
4108,68.49884603847212
4109,68.53798348097484
4110,70.70967566442846
4111,71.3528635688821
4112,71.49742206966381
4113,72.89874173665241
4114,74.19316705962191
4115,74.37358905413033
4116,74.28224259214399
4117,74.33672293357682
4118,74.74664201384279
4119,76.63124030779
4120,78.37513158741497
4121,77.29816598031478
4122,79.09477607736444
4123,80.36171401975058
4124,80.2143088648985
4125,78.44708341320525
4126,75.14068623455177
4127,71.793650471139
4128,69.39773079912374
4129,67.0506673264167
4130,67.01783890546307
4131,67.06318108915401
4132,67.6707558318995
4133,68.51827804783335
4134,70.87027000446136
4135,73.07848581092726
4136,72.7882245752842
4137,72.05716171238093
4138,70.74590214208386
4139,71.7950229453775
4140,74.5829869133161
4141,76.27232014622432
4142,75.51201494043693
4143,73.02990389929353
4144,70.36869679658494
4145,68.95883066738787
4146,69.759583006657
4147,70.66758525271382
4148,72.09344707674019
4149,71.85299358459021
4150,75.06382997043927
4151,73.30012974490243
4152,72.42691124344094
4153,72.26745088842448
4154,72.34199149634247
4155,75.96432657206658
4156,75.93362854869078
4157,73.35334613598735
4158,71.94922685025678
4159,71.28047142653493
4160,73.11346383923748
4161,75.24352975990257
4162,74.74505647525542
4163,72.44177387401474
4164,69.24347654099864
4165,68.0852095671784
4166,70.94828720816577
4167,76.32401920704687
4168,77.65259349337856
4169,77.26498116895661
4170,75.76828606761035
4171,73.17483437294159
4172,75.92982640405084
4173,77.21490613590194
4174,75.9471640379087
4175,74.181498752199
4176,70.46622726239238
4177,72.6761651844848
4178,73.61710177689082
4179,73.75863048156957
4180,70.62692478826594
4181,66.54963389287036
4182,66.33639153358182
4183,67.8049521177636
4184,68.56708526280164
4185,68.44762937569361
4186,67.15940908361728
4187,67.78458394810676
4188,70.10546316591092
4189,71.83403425153847
4190,72.46837021246591
4191,71.92318836355476
4192,69.84178954544329
4193,67.30624100593933
4194,64.6075017462781
4195,64.77508408195342
4196,65.09670532228483
4197,65.29298084285958
4198,65.26198394582019
4199,64.62249871097983
4200,64.93626464001848
4201,63.968535867436195
4202,65.34729672793465
4203,66.77916083223579
4204,69.15549336548418
4205,68.27427379289938
4206,65.80024332578928
4207,65.50188232656014
4208,66.63571463238176
4209,69.38354459426483
4210,68.77096622807744
4211,67.56770698917481
4212,67.39726535596522
4213,67.3562003102843
4214,69.56811295357153
4215,70.07556603680918
4216,71.18274198794542
4217,71.412266399308
4218,71.9437715731149
4219,70.97919704890604
4220,70.55165874860921
4221,69.46516640800183
4222,67.36710180970749
4223,67.59288641119767
4224,67.94875904215068
4225,68.35005568854677
4226,67.22591596851326
4227,65.17533561365723
4228,64.70195959265065
4229,65.7835746839985
4230,69.41962833093832
4231,72.91460867699573
4232,74.91994468908534
4233,74.95317758592468
4234,73.06441539183052
4235,69.10149702612154
4236,63.838430931262806
4237,63.26127835457261
4238,64.55420632336015
4239,66.70812948507806
4240,66.5471178995864
4241,66.77706904557634
4242,64.92190653167114
4243,66.50280119047113
4244,67.18449303446306
4245,68.85415469726252
4246,68.88702697277299
4247,66.48695775141385
4248,65.28533500035928
4249,63.52854338365749
4250,62.117306125011886
4251,62.10407867010647
4252,62.77712136254769
4253,63.47093825401679
4254,64.37620786370698
4255,64.97159213760511
4256,66.35352829623383
4257,66.3667456705077
4258,66.0021964454252
4259,65.14916253141017
4260,64.67306441830672
4261,65.00645392716169
4262,66.09935652808791
4263,65.56011405620649
4264,66.22125990189453
4265,68.53282538665789
4266,69.75977439371376
4267,71.48852203072089
4268,73.15520311754617
4269,75.11094322073731
4270,76.1786984280458
4271,78.0199590693183
4272,78.08493902967497
4273,76.54961171672639
4274,75.24038061882541
4275,72.82807328308375
4276,70.31040420495498
4277,71.05824849765271
4278,69.70793082426809
4279,68.78454269027944
4280,67.349930130628
4281,66.08694564922149
4282,65.86878921963657
4283,67.4678089334838
4284,68.4490020643309
4285,68.11032977709066
4286,69.69966130785637
4287,69.70112378540666
4288,71.4830357833399
4289,73.90586826690958
4290,76.57589580181963
4291,77.51441830741508
4292,80.74612552906169
4293,82.38550938375246
4294,85.53151650419737
4295,84.10661370575252
4296,80.99021354654515
4297,77.2907256536117
4298,74.50076447382185
4299,76.24960216959064
4300,77.82382132471864
4301,79.12244795207079
4302,80.3971786900435
4303,80.19955827339163
4304,77.05142429904286
4305,72.85919888189308
4306,69.18177348007299
4307,71.90213064149701
4308,72.32387744005538
4309,72.3266911847498
4310,71.05688757631256
4311,68.17922704965699
4312,66.5191572257682
4313,65.17612335238624
4314,64.19628358702683
4315,65.73745652395259
4316,67.65566923004651
4317,71.64652169984164
4318,71.14369081666216
4319,72.54720567840245
4320,72.50530316820537
4321,71.77898931192017
4322,72.91271022694019
4323,72.35047238749725
4324,71.73763395898571
4325,72.0411275396965
4326,71.33430205662688
4327,70.61738066551769
4328,68.89638903417668
4329,68.49503556635561
4330,67.04447593657585
4331,65.83696776570537
4332,64.12745807135892
4333,59.06417738857984
4334,59.62176946693073
4335,60.022999820751465
4336,62.85343848847515
4337,64.07476578709108
4338,64.62268364936328
4339,63.58297244226766
4340,62.55549847636924
4341,65.70808685091188
4342,68.21094080350412
4343,66.63132375724206
4344,66.03199706421849
4345,66.85374846508147
4346,71.852094465423
4347,73.70461617380363
4348,73.90562330639983
4349,69.6620806734474
4350,67.59321971177806
4351,67.8374280154399
4352,69.81880715273803
4353,72.33929585933325
4354,70.50097964032173
4355,67.82418742564094
4356,62.34381622435615
4357,60.421811956588385
4358,63.459297718845086
4359,69.25366461055653
4360,69.37919584120873
4361,69.06208954690601
4362,63.680372322346955
4363,58.96839422603664
4364,63.17067377651425
4365,65.0452080991652
4366,66.25012690829064
4367,65.36949123297516
4368,66.98304779011657
4369,69.53243753349273
4370,73.39613871213082
4371,73.11351300270917
4372,74.69209049741626
4373,73.60877117513103
4374,72.60007960142258
4375,72.27248645610145
4376,71.48233117815454
4377,73.62479243369208
4378,76.69438579322119
4379,79.47807286033579
4380,78.01733137676969
4381,75.72644596455706
4382,71.07647426189564
4383,71.9758492695433
4384,74.55520522817733
4385,74.10738313329199
4386,72.39111160080783
4387,70.83021987538717
4388,70.556772350512
4389,72.53048685207489
4390,72.40795547555189
4391,69.77615750940205
4392,68.97362516627143
4393,69.04412536168206
4394,70.87163648520169
4395,72.85010583053219
4396,75.17510935267285
4397,75.84113354057814
4398,76.83044845101975
4399,76.07766216079244
4400,72.24441624757903
4401,70.47685073837019
4402,67.64676446328104
4403,67.57525497588372
4404,67.19511765777459
4405,68.58507956878682
4406,67.87417182227576
4407,69.47412134956014
4408,68.66522672586434
4409,67.75564707281958
4410,66.6545180214302
4411,63.07740019941794
4412,64.70704589844681
4413,65.44145446712062
4414,64.7928620007784
4415,64.21133791325101
4416,63.97943206378167
4417,65.60509483160521
4418,67.92271421470352
4419,68.79203030887797
4420,67.38557640905441
4421,66.76957609196714
4422,69.73780192540511
4423,72.24845220066274
4424,74.04766407037495
4425,73.96474914572666
4426,72.56702545460126
4427,71.5470708871631
4428,71.32179264769891
4429,70.18097198782513
4430,68.55887737367327
4431,69.74737476117974
4432,72.90307577317077
4433,76.9886556900992
4434,78.08576231096086
4435,76.42545280831544
4436,73.19780605868863
4437,70.23518640419498
4438,70.4620982718962
4439,69.5227473768727
4440,70.35381582066191
4441,70.91175021538155
4442,71.38571086949868
4443,73.24662299871599
4444,72.57351067263488
4445,71.97059187516837
4446,70.51216755649509
4447,69.43950682415102
4448,70.76218983497239
4449,71.4618891674113
4450,70.7550024626791
4451,69.79062132270904
4452,69.24899300290173
4453,71.9607245198861
4454,73.06930856725677
4455,70.16401963908481
4456,68.51686896395552
4457,68.43913990306064
4458,72.51395716323043
4459,73.76145983252658
4460,73.58438585621246
4461,71.87319117847677
4462,76.64957061860332
4463,77.9218113218613
4464,75.95851607981018
4465,71.63884088210632
4466,66.41655584519708
4467,68.74809078697548
4468,75.27233036391526
4469,78.21512826922415
4470,77.34716669408297
4471,73.91652557415816
4472,70.21285489696405
4473,71.59921649556091
4474,77.18447551548813
4475,80.75021805300696
4476,79.31506636032141
4477,73.97775780772062
4478,65.04892801405356
4479,64.16619273482779
4480,68.69652156199314
4481,69.50710793111871
4482,69.43358955431593
4483,66.60631913400118
4484,65.07327284004349
4485,65.60845669090254
4486,64.66161118768215
4487,63.04014622545373
4488,61.10839190566954
4489,61.4632991046239
4490,62.58078790424368
4491,64.109509009348
4492,65.47526832924444
4493,66.02811232171305
4494,71.40352485174029
4495,78.12866148622906
4496,83.2746109039545
4497,87.14983710389232
4498,89.69449387745823
4499,92.26048560899821
4500,95.74228763176251
4501,95.61329847723682
4502,94.20722412874875
4503,90.50955355964963
4504,86.16405059340094
4505,86.74190768892633
4506,87.49894560210011
4507,89.29585018394032
4508,89.83829108181952
4509,88.9673203180014
4510,87.62326145832661
4511,85.53623988936243
4512,84.81215141786804
4513,87.18766652806094
4514,89.12320809295566
4515,89.89989804993853
4516,87.28662026503257
4517,82.62556011997374
4518,82.22623290848381
4519,83.97718727214269
4520,87.02041324898269
4521,84.80544895166635
4522,80.52482596371493
4523,77.36136909852819
4524,76.0807589657529
4525,76.48573092680496
4526,75.92017496520121
4527,74.57699631894613
4528,72.83316426717553
4529,70.5920212053159
4530,69.12766265144312
4531,66.59501904938332
4532,66.49131675644506
4533,65.16263373809494
4534,60.955427747181986
4535,60.87079330375372
4536,59.230368612973926
4537,58.0450682714653
4538,56.5979135017495
4539,55.03997168432497
4540,54.65491062818689
4541,55.971492082497264
4542,55.132654595551095
4543,55.273600598650965
4544,54.21819323988074
4545,55.19232661342813
4546,54.702656180583595
4547,55.86041186455092
4548,57.85106630416333
4549,58.65553591444911
4550,59.11290494420198
4551,58.86944300659882
4552,58.821623271538385
4553,61.82884409562236
4554,64.06079045239007
4555,64.62682082889064
4556,64.13839773896731
4557,63.20641181289191
4558,62.245448868675666
4559,62.69401948883384
4560,62.413462981352325
4561,61.38754467305881
4562,61.013622970489386
4563,60.659641832215776
4564,61.292018795618915
4565,63.553232624823195
4566,65.04969473263778
4567,66.70178427138224
4568,65.44410569387713
4569,63.18488965530482
4570,62.18725200574016
4571,63.79300817485461
4572,62.772163800853505
4573,63.83968984332897
4574,62.52391724999681
4575,62.661226584528514
4576,62.005781143807
4577,62.06998777194359
4578,60.89081918704125
4579,61.443864534522
4580,62.25006290930831
4581,65.36378010625995
4582,66.05877741302612
4583,65.52627062131587
4584,64.29366650392096
4585,59.239826786215694
4586,60.41841612483101
4587,58.26361593821708
4588,60.13779660373298
4589,60.49512292242117
4590,61.03769363232067
4591,61.63068008350324
4592,60.3734253719676
4593,61.408674728037155
4594,62.0250909353173
4595,62.217044296956395
4596,63.73488596056365
4597,64.05980742456404
4598,67.55924240592572
4599,74.0586294883782
4600,80.44200565936879
4601,84.00499099751627
4602,85.79625673361757
4603,87.41139880295101
